# == pyFAI calibration ==
# Distance Sample to Detector: 0.16467985556231649 m
# PONI: 9.242e-02, 8.817e-02 m
# Rotations: 0.000148 0.000104 0.000000 rad
# 
# == Fit2d calibration ==
# Distance Sample-beamCenter: 164.680 mm
# Center: x=1175.307, y=1232.557 pix
# Tilt: 0.010 deg  TiltPlanRot: 144.812 deg
# 
# Detector Eiger 4M	 PixelSize= 7.500e-05, 7.500e-05 m
#    Detector has a mask: True 
#    Detector has a dark current: False 
#    detector has a flat field: False 
# 
# Wavelength: 9.537246033323096e-11 m
# Mask applied: from detector
# Dark current applied: False
# Flat field applied: False
# Polarization factor: None
# Normalization factor: 1.0
# --> /gpfs/easy/data/visitor/ihsc1713/id13/XXPROCESS/Cfluct_spd_avg.dat
#       q_nm^-1             I 
  2.336148e-01    3.983777e+05
  2.760674e-01    1.669133e+05
  3.185201e-01    2.218517e+05
  3.609727e-01    4.145088e+05
  4.034253e-01    1.738532e+04
  4.458779e-01    1.552923e+03
  4.883306e-01    1.600493e+03
  5.307832e-01    1.514852e+03
  5.732358e-01    1.295055e+03
  6.156884e-01    1.067589e+03
  6.581411e-01    8.829886e+02
  7.005937e-01    7.410829e+02
  7.430463e-01    6.296225e+02
  7.854989e-01    5.384878e+02
  8.279516e-01    4.643083e+02
  8.704042e-01    4.016913e+02
  9.128568e-01    3.510522e+02
  9.553094e-01    3.070162e+02
  9.977621e-01    2.703959e+02
  1.040215e+00    2.389640e+02
  1.082667e+00    2.121964e+02
  1.125120e+00    1.891560e+02
  1.167573e+00    1.687160e+02
  1.210025e+00    1.511516e+02
  1.252478e+00    1.360986e+02
  1.294930e+00    1.226854e+02
  1.337383e+00    1.107521e+02
  1.379836e+00    1.004059e+02
  1.422288e+00    9.136401e+01
  1.464741e+00    8.338750e+01
  1.507194e+00    7.614800e+01
  1.549646e+00    6.977928e+01
  1.592099e+00    6.425138e+01
  1.634551e+00    5.932971e+01
  1.677004e+00    5.494646e+01
  1.719457e+00    5.108695e+01
  1.761909e+00    4.766249e+01
  1.804362e+00    4.473853e+01
  1.846815e+00    4.203817e+01
  1.889267e+00    3.973884e+01
  1.931720e+00    3.769273e+01
  1.974172e+00    3.590057e+01
  2.016625e+00    3.433121e+01
  2.059078e+00    3.296825e+01
  2.101530e+00    3.178476e+01
  2.143983e+00    3.075130e+01
  2.186436e+00    2.984739e+01
  2.228888e+00    2.909168e+01
  2.271341e+00    2.842813e+01
  2.313793e+00    2.785942e+01
  2.356246e+00    2.734990e+01
  2.398699e+00    2.695021e+01
  2.441151e+00    2.657965e+01
  2.483604e+00    2.626917e+01
  2.526057e+00    2.600708e+01
  2.568509e+00    2.576651e+01
  2.610962e+00    2.556590e+01
  2.653414e+00    2.539380e+01
  2.695867e+00    2.523655e+01
  2.738320e+00    2.511383e+01
  2.780772e+00    2.498905e+01
  2.823225e+00    2.487584e+01
  2.865678e+00    2.476641e+01
  2.908130e+00    2.467064e+01
  2.950583e+00    2.457511e+01
  2.993035e+00    2.447866e+01
  3.035488e+00    2.438181e+01
  3.077941e+00    2.428743e+01
  3.120393e+00    2.419405e+01
  3.162846e+00    2.408740e+01
  3.205299e+00    2.400584e+01
  3.247751e+00    2.389674e+01
  3.290204e+00    2.381967e+01
  3.332656e+00    2.373728e+01
  3.375109e+00    2.367007e+01
  3.417562e+00    2.364109e+01
  3.460014e+00    2.364127e+01
  3.502467e+00    2.368865e+01
  3.544920e+00    2.383095e+01
  3.587372e+00    2.404147e+01
  3.629825e+00    2.439232e+01
  3.672277e+00    2.483989e+01
  3.714730e+00    2.539312e+01
  3.757183e+00    2.611051e+01
  3.799635e+00    2.693329e+01
  3.842088e+00    2.781634e+01
  3.884541e+00    2.860962e+01
  3.926993e+00    2.932677e+01
  3.969446e+00    2.965200e+01
  4.011898e+00    2.954753e+01
  4.054351e+00    2.881017e+01
  4.096804e+00    2.766441e+01
  4.139256e+00    2.626389e+01
  4.181709e+00    2.477358e+01
  4.224162e+00    2.339209e+01
  4.266614e+00    2.217465e+01
  4.309067e+00    2.118979e+01
  4.351519e+00    2.043894e+01
  4.393972e+00    1.984325e+01
  4.436425e+00    1.930999e+01
  4.478877e+00    1.888071e+01
  4.521330e+00    1.849938e+01
  4.563783e+00    1.819483e+01
  4.606235e+00    1.790417e+01
  4.648688e+00    1.763208e+01
  4.691140e+00    1.735507e+01
  4.733593e+00    1.710782e+01
  4.776046e+00    1.686427e+01
  4.818498e+00    1.663433e+01
  4.860951e+00    1.641516e+01
  4.903404e+00    1.619551e+01
  4.945856e+00    1.599903e+01
  4.988309e+00    1.580093e+01
  5.030761e+00    1.564692e+01
  5.073214e+00    1.547794e+01
  5.115667e+00    1.531503e+01
  5.158119e+00    1.515023e+01
  5.200572e+00    1.499085e+01
  5.243025e+00    1.485375e+01
  5.285477e+00    1.472091e+01
  5.327930e+00    1.458766e+01
  5.370382e+00    1.445693e+01
  5.412835e+00    1.433761e+01
  5.455288e+00    1.420821e+01
  5.497740e+00    1.409793e+01
  5.540193e+00    1.400253e+01
  5.582646e+00    1.388714e+01
  5.625098e+00    1.379395e+01
  5.667551e+00    1.369865e+01
  5.710003e+00    1.360916e+01
  5.752456e+00    1.351625e+01
  5.794909e+00    1.343931e+01
  5.837361e+00    1.335577e+01
  5.879814e+00    1.328123e+01
  5.922267e+00    1.320712e+01
  5.964719e+00    1.314175e+01
  6.007172e+00    1.307354e+01
  6.049624e+00    1.300631e+01
  6.092077e+00    1.295279e+01
  6.134530e+00    1.289532e+01
  6.176982e+00    1.284877e+01
  6.219435e+00    1.279438e+01
  6.261888e+00    1.275335e+01
  6.304340e+00    1.270980e+01
  6.346793e+00    1.266043e+01
  6.389245e+00    1.262785e+01
  6.431698e+00    1.259232e+01
  6.474151e+00    1.256021e+01
  6.516603e+00    1.253111e+01
  6.559056e+00    1.249977e+01
  6.601509e+00    1.248272e+01
  6.643961e+00    1.245702e+01
  6.686414e+00    1.244272e+01
  6.728866e+00    1.242716e+01
  6.771319e+00    1.241680e+01
  6.813772e+00    1.240350e+01
  6.856224e+00    1.240157e+01
  6.898677e+00    1.239075e+01
  6.941130e+00    1.238955e+01
  6.983582e+00    1.239118e+01
  7.026035e+00    1.238904e+01
  7.068487e+00    1.239941e+01
  7.110940e+00    1.240822e+01
  7.153393e+00    1.242209e+01
  7.195845e+00    1.243086e+01
  7.238298e+00    1.245078e+01
  7.280751e+00    1.247047e+01
  7.323203e+00    1.250334e+01
  7.365656e+00    1.254639e+01
  7.408108e+00    1.258702e+01
  7.450561e+00    1.264169e+01
  7.493014e+00    1.270033e+01
  7.535466e+00    1.277397e+01
  7.577919e+00    1.285309e+01
  7.620372e+00    1.294131e+01
  7.662824e+00    1.303713e+01
  7.705277e+00    1.312794e+01
  7.747729e+00    1.321815e+01
  7.790182e+00    1.329633e+01
  7.832635e+00    1.336883e+01
  7.875087e+00    1.341809e+01
  7.917540e+00    1.345656e+01
  7.959993e+00    1.347517e+01
  8.002445e+00    1.348018e+01
  8.044898e+00    1.347759e+01
  8.087350e+00    1.347197e+01
  8.129803e+00    1.346506e+01
  8.172256e+00    1.346033e+01
  8.214708e+00    1.346752e+01
  8.257161e+00    1.348278e+01
  8.299614e+00    1.351160e+01
  8.342066e+00    1.354977e+01
  8.384519e+00    1.359350e+01
  8.426971e+00    1.364191e+01
  8.469424e+00    1.370167e+01
  8.511877e+00    1.376347e+01
  8.554329e+00    1.382530e+01
  8.596782e+00    1.388862e+01
  8.639235e+00    1.396251e+01
  8.681687e+00    1.403672e+01
  8.724140e+00    1.411096e+01
  8.766592e+00    1.418653e+01
  8.809045e+00    1.426275e+01
  8.851498e+00    1.434428e+01
  8.893950e+00    1.442805e+01
  8.936403e+00    1.451343e+01
  8.978856e+00    1.460588e+01
  9.021308e+00    1.470431e+01
  9.063761e+00    1.480411e+01
  9.106213e+00    1.490358e+01
  9.148666e+00    1.520169e+01
  9.191119e+00    1.512335e+01
  9.233571e+00    1.523426e+01
  9.276024e+00    1.535734e+01
  9.318477e+00    1.546774e+01
  9.360929e+00    1.560355e+01
  9.403382e+00    1.572266e+01
  9.445834e+00    1.586873e+01
  9.488287e+00    1.600951e+01
  9.530740e+00    1.615959e+01
  9.573192e+00    1.631664e+01
  9.615645e+00    1.647174e+01
  9.658098e+00    1.663565e+01
  9.700550e+00    1.679957e+01
  9.743003e+00    1.696329e+01
  9.785455e+00    1.712703e+01
  9.827908e+00    1.729640e+01
  9.870361e+00    1.746846e+01
  9.912813e+00    1.762630e+01
  9.955266e+00    1.780681e+01
  9.997719e+00    1.797579e+01
  1.004017e+01    1.814739e+01
  1.008262e+01    1.831789e+01
  1.012508e+01    1.849283e+01
  1.016753e+01    1.866742e+01
  1.020998e+01    1.885432e+01
  1.025243e+01    1.903528e+01
  1.029489e+01    1.922082e+01
  1.033734e+01    1.940908e+01
  1.037979e+01    1.960179e+01
  1.042224e+01    1.978982e+01
  1.046470e+01    1.997257e+01
  1.050715e+01    2.015554e+01
  1.054960e+01    2.033460e+01
  1.059206e+01    2.051272e+01
  1.063451e+01    2.068183e+01
  1.067696e+01    2.085455e+01
  1.071941e+01    2.102517e+01
  1.076187e+01    2.119825e+01
  1.080432e+01    2.137760e+01
  1.084677e+01    2.155679e+01
  1.088922e+01    2.175382e+01
  1.093168e+01    2.195230e+01
  1.097413e+01    2.216257e+01
  1.101658e+01    2.238099e+01
  1.105903e+01    2.260953e+01
  1.110149e+01    2.285519e+01
  1.114394e+01    2.309948e+01
  1.118639e+01    2.333612e+01
  1.122884e+01    2.360951e+01
  1.127130e+01    2.389123e+01
  1.131375e+01    2.416231e+01
  1.135620e+01    2.445477e+01
  1.139866e+01    2.473391e+01
  1.144111e+01    2.503168e+01
  1.148356e+01    2.531304e+01
  1.152601e+01    2.562092e+01
  1.156847e+01    2.591349e+01
  1.161092e+01    2.622127e+01
  1.165337e+01    2.650864e+01
  1.169582e+01    2.681634e+01
  1.173828e+01    2.709599e+01
  1.178073e+01    2.741336e+01
  1.182318e+01    2.770846e+01
  1.186563e+01    2.802134e+01
  1.190809e+01    2.832978e+01
  1.195054e+01    2.862886e+01
  1.199299e+01    2.895522e+01
  1.203544e+01    2.928020e+01
  1.207790e+01    2.962698e+01
  1.212035e+01    2.995122e+01
  1.216280e+01    3.031356e+01
  1.220526e+01    3.066490e+01
  1.224771e+01    3.101596e+01
  1.229016e+01    3.136638e+01
  1.233261e+01    3.173273e+01
  1.237507e+01    3.209911e+01
  1.241752e+01    3.245657e+01
  1.245997e+01    3.286813e+01
  1.250242e+01    3.321533e+01
  1.254488e+01    3.358191e+01
  1.258733e+01    3.396461e+01
  1.262978e+01    3.435703e+01
  1.267223e+01    3.467522e+01
  1.271469e+01    3.505772e+01
  1.275714e+01    3.541138e+01
  1.279959e+01    3.579358e+01
  1.284204e+01    3.613113e+01
  1.288450e+01    3.648556e+01
  1.292695e+01    3.684377e+01
  1.296940e+01    3.718261e+01
  1.301185e+01    3.749174e+01
  1.305431e+01    3.784960e+01
  1.309676e+01    3.815509e+01
  1.313921e+01    3.846260e+01
  1.318167e+01    3.874474e+01
  1.322412e+01    3.903590e+01
  1.326657e+01    3.929546e+01
  1.330902e+01    3.956436e+01
  1.335148e+01    3.978783e+01
  1.339393e+01    4.002865e+01
  1.343638e+01    4.022823e+01
  1.347883e+01    4.042421e+01
  1.352129e+01    4.058008e+01
  1.356374e+01    4.073795e+01
  1.360619e+01    4.087653e+01
  1.364864e+01    4.097108e+01
  1.369110e+01    4.107089e+01
  1.373355e+01    4.112849e+01
  1.377600e+01    4.117276e+01
  1.381845e+01    4.119664e+01
  1.386091e+01    4.119610e+01
  1.390336e+01    4.118512e+01
  1.394581e+01    4.117187e+01
  1.398827e+01    4.110262e+01
  1.403072e+01    4.099076e+01
  1.407317e+01    4.085023e+01
  1.411562e+01    4.073407e+01
  1.415808e+01    4.056188e+01
  1.420053e+01    4.040553e+01
  1.424298e+01    4.020712e+01
  1.428543e+01    4.000681e+01
  1.432789e+01    3.976118e+01
  1.437034e+01    3.954308e+01
  1.441279e+01    3.926369e+01
  1.445524e+01    3.899502e+01
  1.449770e+01    3.868081e+01
  1.454015e+01    3.840992e+01
  1.458260e+01    3.808239e+01
  1.462505e+01    3.777444e+01
  1.466751e+01    3.741748e+01
  1.470996e+01    3.707392e+01
  1.475241e+01    3.670464e+01
  1.479487e+01    3.634300e+01
  1.483732e+01    3.597471e+01
  1.487977e+01    3.560540e+01
  1.492222e+01    3.521783e+01
  1.496468e+01    3.483134e+01
  1.500713e+01    3.445048e+01
  1.504958e+01    3.405753e+01
  1.509203e+01    3.365971e+01
  1.513449e+01    3.326835e+01
  1.517694e+01    3.288469e+01
  1.521939e+01    3.249310e+01
  1.526184e+01    3.209214e+01
  1.530430e+01    3.171386e+01
  1.534675e+01    3.131713e+01
  1.538920e+01    3.093149e+01
  1.543165e+01    3.055743e+01
  1.547411e+01    3.016964e+01
  1.551656e+01    2.977727e+01
  1.555901e+01    2.941515e+01
  1.560147e+01    2.902615e+01
  1.564392e+01    2.864657e+01
  1.568637e+01    2.826668e+01
  1.572882e+01    2.789491e+01
  1.577128e+01    2.752074e+01
  1.581373e+01    2.717343e+01
  1.585618e+01    2.679242e+01
  1.589863e+01    2.645048e+01
  1.594109e+01    2.609172e+01
  1.598354e+01    2.576386e+01
  1.602599e+01    2.543077e+01
  1.606844e+01    2.510497e+01
  1.611090e+01    2.477459e+01
  1.615335e+01    2.446560e+01
  1.619580e+01    2.415580e+01
  1.623825e+01    2.388184e+01
  1.628071e+01    2.359440e+01
  1.632316e+01    2.329902e+01
  1.636561e+01    2.298814e+01
  1.640806e+01    2.273341e+01
  1.645052e+01    2.245376e+01
  1.649297e+01    2.220525e+01
  1.653542e+01    2.194827e+01
  1.657788e+01    2.169017e+01
  1.662033e+01    2.144220e+01
  1.666278e+01    2.121947e+01
  1.670523e+01    2.097098e+01
  1.674769e+01    2.075478e+01
  1.679014e+01    2.052025e+01
  1.683259e+01    2.030874e+01
  1.687504e+01    2.009360e+01
  1.691750e+01    1.988676e+01
  1.695995e+01    1.969608e+01
  1.700240e+01    1.949275e+01
  1.704485e+01    1.931441e+01
  1.708731e+01    1.911061e+01
  1.712976e+01    1.894990e+01
  1.717221e+01    1.875213e+01
  1.721466e+01    1.860255e+01
  1.725712e+01    1.841380e+01
  1.729957e+01    1.826719e+01
  1.734202e+01    1.809194e+01
  1.738448e+01    1.795469e+01
  1.742693e+01    1.778737e+01
  1.746938e+01    1.765950e+01
  1.751183e+01    1.749757e+01
  1.755429e+01    1.737190e+01
  1.759674e+01    1.722883e+01
  1.763919e+01    1.709398e+01
  1.768164e+01    1.698393e+01
  1.772410e+01    1.684386e+01
  1.776655e+01    1.673596e+01
  1.780900e+01    1.660213e+01
  1.785145e+01    1.651229e+01
  1.789391e+01    1.638626e+01
  1.793636e+01    1.629740e+01
  1.797881e+01    1.617624e+01
  1.802126e+01    1.608507e+01
  1.806372e+01    1.596878e+01
  1.810617e+01    1.587413e+01
  1.814862e+01    1.577654e+01
  1.819108e+01    1.566885e+01
  1.823353e+01    1.558480e+01
  1.827598e+01    1.547782e+01
  1.831843e+01    1.539112e+01
  1.836089e+01    1.535871e+01
  1.840334e+01    1.519442e+01
  1.844579e+01    1.508285e+01
  1.848824e+01    1.499679e+01
  1.853070e+01    1.488612e+01
  1.857315e+01    1.479381e+01
  1.861560e+01    1.470305e+01
  1.865805e+01    1.459689e+01
  1.870051e+01    1.451924e+01
  1.874296e+01    1.441610e+01
  1.878541e+01    1.433681e+01
  1.882786e+01    1.422433e+01
  1.887032e+01    1.415646e+01
  1.891277e+01    1.403842e+01
  1.895522e+01    1.396364e+01
  1.899768e+01    1.386590e+01
  1.904013e+01    1.376894e+01
  1.908258e+01    1.370773e+01
  1.912503e+01    1.359939e+01
  1.916749e+01    1.353599e+01
  1.920994e+01    1.343371e+01
  1.925239e+01    1.335778e+01
  1.929484e+01    1.327205e+01
  1.933730e+01    1.320109e+01
  1.937975e+01    1.313109e+01
  1.942220e+01    1.303032e+01
  1.946465e+01    1.299204e+01
  1.950711e+01    1.288067e+01
  1.954956e+01    1.284027e+01
  1.959201e+01    1.272213e+01
  1.963446e+01    1.267168e+01
  1.967692e+01    1.258453e+01
  1.971937e+01    1.249784e+01
  1.976182e+01    1.242440e+01
  1.980427e+01    1.228957e+01
  1.984673e+01    1.221011e+01
  1.988918e+01    1.209042e+01
  1.993163e+01    1.203196e+01
  1.997409e+01    1.191385e+01
  2.001654e+01    1.184144e+01
  2.005899e+01    1.177155e+01
  2.010144e+01    1.165982e+01
  2.014390e+01    1.160909e+01
  2.018635e+01    1.150581e+01
  2.022880e+01    1.144841e+01
  2.027125e+01    1.136312e+01
  2.031371e+01    1.128195e+01
  2.035616e+01    1.120882e+01
  2.039861e+01    1.111598e+01
  2.044106e+01    1.108560e+01
  2.048352e+01    1.096328e+01
  2.052597e+01    1.091351e+01
  2.056842e+01    1.083378e+01
  2.061087e+01    1.075908e+01
  2.065333e+01    1.069521e+01
  2.069578e+01    1.061674e+01
  2.073823e+01    1.055856e+01
  2.078069e+01    1.058708e+01
  2.082314e+01    1.053123e+01
  2.086559e+01    1.050099e+01
  2.090804e+01    1.044134e+01
  2.095050e+01    1.041729e+01
  2.099295e+01    1.035054e+01
  2.103540e+01    1.030410e+01
  2.107785e+01    1.028704e+01
  2.112031e+01    1.019797e+01
  2.116276e+01    1.017660e+01
  2.120521e+01    1.011537e+01
  2.124766e+01    1.005496e+01
  2.129012e+01    1.004128e+01
  2.133257e+01    9.967446e+00
  2.137502e+01    9.960995e+00
  2.141747e+01    9.885682e+00
  2.145993e+01    9.832584e+00
  2.150238e+01    9.810671e+00
  2.154483e+01    9.740796e+00
  2.158729e+01    9.725328e+00
  2.162974e+01    9.642978e+00
  2.167219e+01    9.595343e+00
  2.171464e+01    9.562818e+00
  2.175710e+01    9.498628e+00
  2.179955e+01    9.461736e+00
  2.184200e+01    9.382010e+00
  2.188445e+01    9.339532e+00
  2.192691e+01    9.309119e+00
  2.196936e+01    9.232316e+00
  2.201181e+01    9.209465e+00
  2.205426e+01    9.126352e+00
  2.209672e+01    9.088880e+00
  2.213917e+01    9.047420e+00
  2.218162e+01    8.984151e+00
  2.222407e+01    8.952485e+00
  2.226653e+01    8.895868e+00
  2.230898e+01    8.840037e+00
  2.235143e+01    8.812002e+00
  2.239389e+01    8.755386e+00
  2.243634e+01    8.710619e+00
  2.247879e+01    8.677926e+00
  2.252124e+01    8.622214e+00
  2.256370e+01    8.591578e+00
  2.260615e+01    8.526564e+00
  2.264860e+01    8.485302e+00
  2.269105e+01    8.459418e+00
  2.273351e+01    8.397155e+00
  2.277596e+01    8.359280e+00
  2.281841e+01    8.325957e+00
  2.286086e+01    8.269840e+00
  2.290332e+01    8.245410e+00
  2.294577e+01    8.185746e+00
  2.298822e+01    8.149052e+00
  2.303067e+01    8.121515e+00
  2.307313e+01    8.053730e+00
  2.311558e+01    8.026008e+00
  2.315803e+01    7.986708e+00
  2.320048e+01    7.930812e+00
  2.324294e+01    7.918431e+00
  2.328539e+01    7.855712e+00
  2.332784e+01    7.815534e+00
  2.337030e+01    7.802107e+00
  2.341275e+01    7.728088e+00
  2.345520e+01    7.702801e+00
  2.349765e+01    7.677389e+00
  2.354011e+01    7.609717e+00
  2.358256e+01    7.570914e+00
  2.362501e+01    7.569123e+00
  2.366746e+01    7.500395e+00
  2.370992e+01    7.478473e+00
  2.375237e+01    7.448917e+00
  2.379482e+01    7.403683e+00
  2.383727e+01    7.374591e+00
  2.387973e+01    7.340807e+00
  2.392218e+01    7.287329e+00
  2.396463e+01    7.261928e+00
  2.400708e+01    7.209172e+00
  2.404954e+01    7.186319e+00
  2.409199e+01    7.157338e+00
  2.413444e+01    7.109275e+00
  2.417690e+01    7.081272e+00
  2.421935e+01    7.059266e+00
  2.426180e+01    7.019084e+00
  2.430425e+01    6.982780e+00
  2.434671e+01    6.963143e+00
  2.438916e+01    6.927404e+00
  2.443161e+01    6.887427e+00
  2.447406e+01    6.884015e+00
  2.451652e+01    6.841759e+00
  2.455897e+01    6.808000e+00
  2.460142e+01    6.802482e+00
  2.464387e+01    6.762630e+00
  2.468633e+01    6.729795e+00
  2.472878e+01    6.718137e+00
  2.477123e+01    6.689414e+00
  2.481368e+01    6.646382e+00
  2.485614e+01    6.650820e+00
  2.489859e+01    6.605872e+00
  2.494104e+01    6.576902e+00
  2.498350e+01    6.574697e+00
  2.502595e+01    6.539093e+00
  2.506840e+01    6.515250e+00
  2.511085e+01    6.509017e+00
  2.515331e+01    6.460423e+00
  2.519576e+01    6.448784e+00
  2.523821e+01    6.436480e+00
  2.528066e+01    6.403907e+00
  2.532312e+01    6.379458e+00
  2.536557e+01    6.385713e+00
  2.540802e+01    6.382582e+00
  2.545047e+01    6.376308e+00
  2.549293e+01    6.360188e+00
  2.553538e+01    6.351275e+00
  2.557783e+01    6.335859e+00
  2.562028e+01    6.328746e+00
  2.566274e+01    6.315533e+00
  2.570519e+01    6.292284e+00
  2.574764e+01    6.271485e+00
  2.579010e+01    6.286084e+00
  2.583255e+01    6.257005e+00
  2.587500e+01    6.240756e+00
  2.591745e+01    6.238504e+00
  2.595991e+01    6.225501e+00
  2.600236e+01    6.219577e+00
  2.604481e+01    6.212440e+00
  2.608726e+01    6.187056e+00
  2.612972e+01    6.178357e+00
  2.617217e+01    6.162857e+00
  2.621462e+01    6.163168e+00
  2.625707e+01    6.158031e+00
  2.629953e+01    6.142428e+00
  2.634198e+01    6.193097e+00
  2.638443e+01    6.261940e+00
  2.642688e+01    6.301573e+00
  2.646934e+01    6.326896e+00
  2.651179e+01    6.359245e+00
  2.655424e+01    6.375929e+00
  2.659669e+01    6.383320e+00
  2.663915e+01    6.390704e+00
  2.668160e+01    6.424570e+00
  2.672405e+01    6.416793e+00
  2.676651e+01    6.447159e+00
  2.680896e+01    6.461839e+00
  2.685141e+01    6.454918e+00
  2.689386e+01    6.462541e+00
  2.693632e+01    6.476268e+00
  2.697877e+01    6.493181e+00
  2.702122e+01    6.487249e+00
  2.706367e+01    6.486395e+00
  2.710613e+01    6.516317e+00
  2.714858e+01    6.504132e+00
  2.719103e+01    6.514813e+00
  2.723348e+01    6.504320e+00
  2.727594e+01    6.512263e+00
  2.731839e+01    6.514757e+00
  2.736084e+01    6.504467e+00
  2.740329e+01    6.521623e+00
  2.744575e+01    6.524933e+00
  2.748820e+01    6.519658e+00
  2.753065e+01    6.506346e+00
  2.757311e+01    6.524277e+00
  2.761556e+01    6.510506e+00
  2.765801e+01    6.520891e+00
  2.770046e+01    6.511733e+00
  2.774292e+01    6.518161e+00
  2.778537e+01    6.509571e+00
  2.782782e+01    6.526115e+00
  2.787027e+01    6.514737e+00
  2.791273e+01    6.523011e+00
  2.795518e+01    6.522926e+00
  2.799763e+01    6.519200e+00
  2.804008e+01    6.508962e+00
  2.808254e+01    6.513736e+00
  2.812499e+01    6.535111e+00
  2.816744e+01    6.508213e+00
  2.820989e+01    6.513206e+00
  2.825235e+01    6.517233e+00
  2.829480e+01    6.522770e+00
  2.833725e+01    6.517856e+00
  2.837971e+01    6.534178e+00
  2.842216e+01    6.521170e+00
  2.846461e+01    6.525577e+00
  2.850706e+01    6.525076e+00
  2.854952e+01    6.519668e+00
  2.859197e+01    6.517151e+00
  2.863442e+01    6.530642e+00
  2.867687e+01    6.529517e+00
  2.871933e+01    6.547729e+00
  2.876178e+01    6.537802e+00
  2.880423e+01    6.548564e+00
  2.884668e+01    6.537091e+00
  2.888914e+01    6.523051e+00
  2.893159e+01    6.514149e+00
  2.897404e+01    6.524339e+00
  2.901649e+01    6.518108e+00
  2.905895e+01    6.532950e+00
  2.910140e+01    6.503595e+00
  2.914385e+01    6.528187e+00
  2.918631e+01    6.508125e+00
  2.922876e+01    6.514538e+00
  2.927121e+01    6.502849e+00
  2.931366e+01    6.495754e+00
  2.935612e+01    6.500329e+00
  2.939857e+01    6.494438e+00
  2.944102e+01    6.495531e+00
  2.948347e+01    6.483954e+00
  2.952593e+01    6.477157e+00
  2.956838e+01    6.472101e+00
  2.961083e+01    6.482839e+00
  2.965328e+01    6.454794e+00
  2.969574e+01    6.466106e+00
  2.973819e+01    6.426431e+00
  2.978064e+01    6.457220e+00
  2.982309e+01    6.431689e+00
  2.986555e+01    6.436700e+00
  2.990800e+01    6.417801e+00
  2.995045e+01    6.414698e+00
  2.999290e+01    6.417114e+00
  3.003536e+01    6.404809e+00
  3.007781e+01    6.403270e+00
  3.012026e+01    6.376772e+00
  3.016272e+01    6.376605e+00
  3.020517e+01    6.369114e+00
  3.024762e+01    6.474494e+00
  3.029007e+01    6.387536e+00
  3.033253e+01    6.350513e+00
  3.037498e+01    6.337126e+00
  3.041743e+01    6.316412e+00
  3.045988e+01    6.320657e+00
  3.050234e+01    6.317501e+00
  3.054479e+01    6.304257e+00
  3.058724e+01    6.291312e+00
  3.062969e+01    6.284520e+00
  3.067215e+01    6.269318e+00
  3.071460e+01    6.266423e+00
  3.075705e+01    6.262916e+00
  3.079950e+01    6.252617e+00
  3.084196e+01    6.242774e+00
  3.088441e+01    6.223040e+00
  3.092686e+01    6.204473e+00
  3.096932e+01    6.213543e+00
  3.101177e+01    6.192385e+00
  3.105422e+01    6.183300e+00
  3.109667e+01    6.210446e+00
  3.113913e+01    6.137812e+00
  3.118158e+01    6.132622e+00
  3.122403e+01    6.130039e+00
  3.126648e+01    6.101531e+00
  3.130894e+01    6.091430e+00
  3.135139e+01    6.077149e+00
  3.139384e+01    6.059730e+00
  3.143629e+01    6.048066e+00
  3.147875e+01    6.018858e+00
  3.152120e+01    6.028903e+00
  3.156365e+01    6.007565e+00
  3.160610e+01    5.984952e+00
  3.164856e+01    5.979703e+00
  3.169101e+01    5.957211e+00
  3.173346e+01    5.948352e+00
  3.177592e+01    5.930876e+00
  3.181837e+01    5.912195e+00
  3.186082e+01    5.916156e+00
  3.190327e+01    5.899754e+00
  3.194573e+01    5.871624e+00
  3.198818e+01    5.875273e+00
  3.203063e+01    5.842301e+00
  3.207308e+01    5.823909e+00
  3.211554e+01    5.822598e+00
  3.215799e+01    5.807269e+00
  3.220044e+01    5.789894e+00
  3.224289e+01    5.792513e+00
  3.228535e+01    5.765000e+00
  3.232780e+01    5.741008e+00
  3.237025e+01    5.748282e+00
  3.241270e+01    5.715356e+00
  3.245516e+01    5.690532e+00
  3.249761e+01    5.699051e+00
  3.254006e+01    5.678829e+00
  3.258252e+01    5.647954e+00
  3.262497e+01    5.653474e+00
  3.266742e+01    5.633034e+00
  3.270987e+01    5.589472e+00
  3.275233e+01    5.600414e+00
  3.279478e+01    5.580657e+00
  3.283723e+01    5.548381e+00
  3.287968e+01    5.546254e+00
  3.292214e+01    5.528647e+00
  3.296459e+01    5.513746e+00
  3.300704e+01    5.485803e+00
  3.304949e+01    5.494262e+00
  3.309195e+01    5.470084e+00
  3.313440e+01    5.441406e+00
  3.317685e+01    5.443135e+00
  3.321930e+01    5.430236e+00
  3.326176e+01    5.411380e+00
  3.330421e+01    5.401233e+00
  3.334666e+01    5.370039e+00
  3.338911e+01    5.280910e+00
  3.343157e+01    5.210223e+00
  3.347402e+01    5.184448e+00
  3.351647e+01    5.141781e+00
  3.355893e+01    5.100576e+00
  3.360138e+01    5.056887e+00
  3.364383e+01    5.054559e+00
  3.368628e+01    5.010265e+00
  3.372874e+01    4.976572e+00
  3.377119e+01    4.955359e+00
  3.381364e+01    4.941866e+00
  3.385609e+01    4.899960e+00
  3.389855e+01    4.884184e+00
  3.394100e+01    4.854973e+00
  3.398345e+01    4.843281e+00
  3.402590e+01    4.816566e+00
  3.406836e+01    4.785903e+00
  3.411081e+01    4.769565e+00
  3.415326e+01    4.773655e+00
  3.419571e+01    4.724552e+00
  3.423817e+01    4.713211e+00
  3.428062e+01    4.687666e+00
  3.432307e+01    4.694683e+00
  3.436553e+01    4.669775e+00
  3.440798e+01    4.636886e+00
  3.445043e+01    4.624451e+00
  3.449288e+01    4.623112e+00
  3.453534e+01    4.621262e+00
  3.457779e+01    4.586991e+00
  3.462024e+01    4.563738e+00
  3.466269e+01    4.566788e+00
  3.470515e+01    4.540307e+00
  3.474760e+01    4.532631e+00
  3.479005e+01    4.497763e+00
  3.483250e+01    4.503479e+00
  3.487496e+01    4.457816e+00
  3.491741e+01    4.438270e+00
  3.495986e+01    4.435016e+00
  3.500231e+01    4.392004e+00
  3.504477e+01    4.374728e+00
  3.508722e+01    4.363796e+00
  3.512967e+01    4.329674e+00
  3.517213e+01    4.331766e+00
  3.521458e+01    4.304618e+00
  3.525703e+01    4.285416e+00
  3.529948e+01    4.260337e+00
  3.534194e+01    4.243110e+00
  3.538439e+01    4.224670e+00
  3.542684e+01    4.220994e+00
  3.546929e+01    4.185633e+00
  3.551175e+01    4.175370e+00
  3.555420e+01    4.152145e+00
  3.559665e+01    4.141382e+00
  3.563910e+01    4.115160e+00
  3.568156e+01    4.109680e+00
  3.572401e+01    4.080635e+00
  3.576646e+01    4.074811e+00
  3.580891e+01    4.051784e+00
  3.585137e+01    4.033932e+00
  3.589382e+01    4.010737e+00
  3.593627e+01    3.997887e+00
  3.597873e+01    3.977767e+00
  3.602118e+01    3.975050e+00
  3.606363e+01    3.951461e+00
  3.610608e+01    3.939765e+00
  3.614854e+01    3.917270e+00
  3.619099e+01    3.911348e+00
  3.623344e+01    3.899495e+00
  3.627589e+01    3.878636e+00
  3.631835e+01    3.864724e+00
  3.636080e+01    3.846881e+00
  3.640325e+01    3.846523e+00
  3.644570e+01    3.828458e+00
  3.648816e+01    3.808062e+00
  3.653061e+01    3.803926e+00
  3.657306e+01    3.773213e+00
  3.661551e+01    3.768164e+00
  3.665797e+01    3.741975e+00
  3.670042e+01    3.735597e+00
  3.674287e+01    3.721327e+00
  3.678532e+01    3.688472e+00
  3.682778e+01    3.688402e+00
  3.687023e+01    3.671170e+00
  3.691268e+01    3.660001e+00
  3.695514e+01    3.632749e+00
  3.699759e+01    3.631428e+00
  3.704004e+01    3.610140e+00
  3.708249e+01    3.602440e+00
  3.712495e+01    3.584093e+00
  3.716740e+01    3.582199e+00
  3.720985e+01    3.566915e+00
  3.725230e+01    3.562199e+00
  3.729476e+01    3.553520e+00
  3.733721e+01    3.543360e+00
  3.737966e+01    3.536630e+00
  3.742211e+01    3.531640e+00
  3.746457e+01    3.522142e+00
  3.750702e+01    3.525163e+00
  3.754947e+01    3.507207e+00
  3.759192e+01    3.514971e+00
  3.763438e+01    3.511219e+00
  3.767683e+01    3.508090e+00
  3.771928e+01    3.509601e+00
  3.776174e+01    3.505515e+00
  3.780419e+01    3.517213e+00
  3.784664e+01    3.510045e+00
  3.788909e+01    3.515266e+00
  3.793155e+01    3.516743e+00
  3.797400e+01    3.532663e+00
  3.801645e+01    3.526543e+00
  3.805890e+01    3.543501e+00
  3.810136e+01    3.550891e+00
  3.814381e+01    3.548562e+00
  3.818626e+01    3.567723e+00
  3.822871e+01    3.583788e+00
  3.827117e+01    3.592941e+00
  3.831362e+01    3.597337e+00
  3.835607e+01    3.619019e+00
  3.839852e+01    3.642653e+00
  3.844098e+01    3.652305e+00
  3.848343e+01    3.675782e+00
  3.852588e+01    3.691034e+00
  3.856834e+01    3.713714e+00
  3.861079e+01    3.745709e+00
  3.865324e+01    3.766462e+00
  3.869569e+01    3.790838e+00
  3.873815e+01    3.827059e+00
  3.878060e+01    3.854140e+00
  3.882305e+01    3.897516e+00
  3.886550e+01    3.925723e+00
  3.890796e+01    3.970049e+00
  3.895041e+01    3.991285e+00
  3.899286e+01    4.002520e+00
  3.903531e+01    4.007954e+00
  3.907777e+01    4.017989e+00
  3.912022e+01    4.032825e+00
  3.916267e+01    4.047219e+00
  3.920512e+01    4.059941e+00
  3.924758e+01    4.072981e+00
  3.929003e+01    4.089050e+00
  3.933248e+01    4.107327e+00
  3.937494e+01    4.106636e+00
  3.941739e+01    4.094610e+00
  3.945984e+01    4.088717e+00
  3.950229e+01    4.077170e+00
  3.954475e+01    4.064869e+00
  3.958720e+01    4.057721e+00
  3.962965e+01    4.052646e+00
  3.967210e+01    4.042562e+00
  3.971456e+01    4.033696e+00
  3.975701e+01    4.020432e+00
  3.979946e+01    4.009155e+00
  3.984191e+01    4.003875e+00
  3.988437e+01    3.995784e+00
  3.992682e+01    3.985303e+00
  3.996927e+01    3.979087e+00
  4.001172e+01    3.965251e+00
  4.005418e+01    3.956450e+00
  4.009663e+01    3.946403e+00
  4.013908e+01    3.939506e+00
  4.018153e+01    3.931658e+00
  4.022399e+01    3.926714e+00
  4.026644e+01    3.916513e+00
  4.030889e+01    3.902318e+00
  4.035135e+01    3.893579e+00
  4.039380e+01    3.890497e+00
  4.043625e+01    3.879456e+00
  4.047870e+01    3.871318e+00
  4.052116e+01    3.862190e+00
  4.056361e+01    3.853720e+00
  4.060606e+01    3.844361e+00
  4.064851e+01    3.838256e+00
  4.069097e+01    3.832135e+00
  4.073342e+01    3.819324e+00
  4.077587e+01    3.812129e+00
  4.081832e+01    3.802398e+00
  4.086078e+01    3.797651e+00
  4.090323e+01    3.786760e+00
  4.094568e+01    3.782913e+00
  4.098813e+01    3.773865e+00
  4.103059e+01    3.769532e+00
  4.107304e+01    3.757811e+00
  4.111549e+01    3.748767e+00
  4.115795e+01    3.741538e+00
  4.120040e+01    3.736927e+00
  4.124285e+01    3.725933e+00
  4.128530e+01    3.716949e+00
  4.132776e+01    3.709418e+00
  4.137021e+01    3.702672e+00
  4.141266e+01    3.698048e+00
  4.145511e+01    3.687781e+00
  4.149757e+01    3.677273e+00
  4.154002e+01    3.673349e+00
  4.158247e+01    3.660234e+00
  4.162492e+01    3.653542e+00
  4.166738e+01    3.638927e+00
  4.170983e+01    3.602712e+00
  4.175228e+01    3.571227e+00
  4.179473e+01    3.524285e+00
  4.183719e+01    3.469459e+00
  4.187964e+01    3.418953e+00
  4.192209e+01    3.362755e+00
  4.196455e+01    3.310647e+00
  4.200700e+01    3.256933e+00
  4.204945e+01    3.202723e+00
  4.209190e+01    3.151807e+00
  4.213436e+01    3.101933e+00
  4.217681e+01    3.069254e+00
  4.221926e+01    3.019756e+00
  4.226171e+01    2.984926e+00
  4.230417e+01    2.946546e+00
  4.234662e+01    2.916829e+00
  4.238907e+01    2.876003e+00
  4.243152e+01    2.849965e+00
  4.247398e+01    2.811203e+00
  4.251643e+01    2.775901e+00
  4.255888e+01    2.705609e+00
  4.260133e+01    2.576688e+00
  4.264379e+01    2.510000e+00
