# == pyFAI calibration ==
# Distance Sample to Detector: 0.16467985556231649 m
# PONI: 9.242e-02, 8.817e-02 m
# Rotations: 0.000148 0.000104 0.000000 rad
# 
# == Fit2d calibration ==
# Distance Sample-beamCenter: 164.680 mm
# Center: x=1175.307, y=1232.557 pix
# Tilt: 0.010 deg  TiltPlanRot: 144.812 deg
# 
# Detector Eiger 4M	 PixelSize= 7.500e-05, 7.500e-05 m
#    Detector has a mask: True 
#    Detector has a dark current: False 
#    detector has a flat field: False 
# 
# Wavelength: 9.537246033323096e-11 m
# Mask applied: from detector
# Dark current applied: False
# Flat field applied: False
# Polarization factor: None
# Normalization factor: 1.0
# --> /gpfs/easy/data/visitor/ihsc1713/id13/XXPROCESS/Cfluct_sp_avg.dat
#       q_nm^-1             I 
  2.336148e-01    5.773935e+01
  2.760674e-01    4.738714e+01
  3.185201e-01    4.192344e+01
  3.609727e-01    3.752236e+01
  4.034253e-01    3.414017e+01
  4.458779e-01    3.153554e+01
  4.883306e-01    2.943512e+01
  5.307832e-01    2.765263e+01
  5.732358e-01    2.605502e+01
  6.156884e-01    2.460636e+01
  6.581411e-01    2.328400e+01
  7.005937e-01    2.214614e+01
  7.430463e-01    2.115331e+01
  7.854989e-01    2.026600e+01
  8.279516e-01    1.953999e+01
  8.704042e-01    1.884538e+01
  9.128568e-01    1.832294e+01
  9.553094e-01    1.784755e+01
  9.977621e-01    1.745788e+01
  1.040215e+00    1.714838e+01
  1.082667e+00    1.690891e+01
  1.125120e+00    1.677759e+01
  1.167573e+00    1.668074e+01
  1.210025e+00    1.667406e+01
  1.252478e+00    1.672841e+01
  1.294930e+00    1.689713e+01
  1.337383e+00    1.719548e+01
  1.379836e+00    1.762054e+01
  1.422288e+00    1.836983e+01
  1.464741e+00    1.956231e+01
  1.507194e+00    2.181441e+01
  1.549646e+00    3.688622e+01
  1.592099e+00    1.293150e+02
  1.634551e+00    2.212043e+02
  1.677004e+00    1.341495e+02
  1.719457e+00    4.561110e+01
  1.761909e+00    3.148261e+01
  1.804362e+00    2.769949e+01
  1.846815e+00    2.551553e+01
  1.889267e+00    2.414846e+01
  1.931720e+00    2.309850e+01
  1.974172e+00    2.233013e+01
  2.016625e+00    2.172478e+01
  2.059078e+00    2.125623e+01
  2.101530e+00    2.083969e+01
  2.143983e+00    2.048185e+01
  2.186436e+00    2.016116e+01
  2.228888e+00    1.991161e+01
  2.271341e+00    1.967894e+01
  2.313793e+00    1.945956e+01
  2.356246e+00    1.927382e+01
  2.398699e+00    1.910770e+01
  2.441151e+00    1.894678e+01
  2.483604e+00    1.881866e+01
  2.526057e+00    1.870321e+01
  2.568509e+00    1.859745e+01
  2.610962e+00    1.851558e+01
  2.653414e+00    1.845458e+01
  2.695867e+00    1.839867e+01
  2.738320e+00    1.835762e+01
  2.780772e+00    1.834557e+01
  2.823225e+00    1.834245e+01
  2.865678e+00    1.835484e+01
  2.908130e+00    1.839124e+01
  2.950583e+00    1.848220e+01
  2.993035e+00    1.857627e+01
  3.035488e+00    1.873336e+01
  3.077941e+00    1.895569e+01
  3.120393e+00    1.932701e+01
  3.162846e+00    2.006892e+01
  3.205299e+00    2.236334e+01
  3.247751e+00    2.622832e+01
  3.290204e+00    2.651472e+01
  3.332656e+00    2.306284e+01
  3.375109e+00    2.083185e+01
  3.417562e+00    1.999950e+01
  3.460014e+00    1.962406e+01
  3.502467e+00    1.948994e+01
  3.544920e+00    1.954152e+01
  3.587372e+00    1.974061e+01
  3.629825e+00    2.013473e+01
  3.672277e+00    2.067097e+01
  3.714730e+00    2.133404e+01
  3.757183e+00    2.217462e+01
  3.799635e+00    2.312977e+01
  3.842088e+00    2.415743e+01
  3.884541e+00    2.509937e+01
  3.926993e+00    2.595025e+01
  3.969446e+00    2.639537e+01
  4.011898e+00    2.641168e+01
  4.054351e+00    2.580027e+01
  4.096804e+00    2.481520e+01
  4.139256e+00    2.357012e+01
  4.181709e+00    2.224913e+01
  4.224162e+00    2.104569e+01
  4.266614e+00    2.000167e+01
  4.309067e+00    1.917032e+01
  4.351519e+00    1.855474e+01
  4.393972e+00    1.806557e+01
  4.436425e+00    1.763549e+01
  4.478877e+00    1.729795e+01
  4.521330e+00    1.698852e+01
  4.563783e+00    1.675237e+01
  4.606235e+00    1.650411e+01
  4.648688e+00    1.626672e+01
  4.691140e+00    1.603063e+01
  4.733593e+00    1.579928e+01
  4.776046e+00    1.557746e+01
  4.818498e+00    1.535356e+01
  4.860951e+00    1.514097e+01
  4.903404e+00    1.492246e+01
  4.945856e+00    1.471641e+01
  4.988309e+00    1.451682e+01
  5.030761e+00    1.433427e+01
  5.073214e+00    1.413268e+01
  5.115667e+00    1.393933e+01
  5.158119e+00    1.375569e+01
  5.200572e+00    1.356674e+01
  5.243025e+00    1.340337e+01
  5.285477e+00    1.324436e+01
  5.327930e+00    1.308559e+01
  5.370382e+00    1.292146e+01
  5.412835e+00    1.277638e+01
  5.455288e+00    1.262025e+01
  5.497740e+00    1.247979e+01
  5.540193e+00    1.235753e+01
  5.582646e+00    1.222340e+01
  5.625098e+00    1.210194e+01
  5.667551e+00    1.198335e+01
  5.710003e+00    1.187008e+01
  5.752456e+00    1.175556e+01
  5.794909e+00    1.165581e+01
  5.837361e+00    1.156047e+01
  5.879814e+00    1.146914e+01
  5.922267e+00    1.137783e+01
  5.964719e+00    1.129775e+01
  6.007172e+00    1.121581e+01
  6.049624e+00    1.113502e+01
  6.092077e+00    1.106797e+01
  6.134530e+00    1.100160e+01
  6.176982e+00    1.094376e+01
  6.219435e+00    1.088416e+01
  6.261888e+00    1.082948e+01
  6.304340e+00    1.077643e+01
  6.346793e+00    1.072899e+01
  6.389245e+00    1.068853e+01
  6.431698e+00    1.064851e+01
  6.474151e+00    1.061236e+01
  6.516603e+00    1.058107e+01
  6.559056e+00    1.055267e+01
  6.601509e+00    1.052691e+01
  6.643961e+00    1.050799e+01
  6.686414e+00    1.049136e+01
  6.728866e+00    1.047394e+01
  6.771319e+00    1.046432e+01
  6.813772e+00    1.045494e+01
  6.856224e+00    1.044635e+01
  6.898677e+00    1.044312e+01
  6.941130e+00    1.044819e+01
  6.983582e+00    1.044859e+01
  7.026035e+00    1.045015e+01
  7.068487e+00    1.046411e+01
  7.110940e+00    1.047661e+01
  7.153393e+00    1.049171e+01
  7.195845e+00    1.050773e+01
  7.238298e+00    1.053262e+01
  7.280751e+00    1.055496e+01
  7.323203e+00    1.059341e+01
  7.365656e+00    1.063503e+01
  7.408108e+00    1.067869e+01
  7.450561e+00    1.073908e+01
  7.493014e+00    1.080060e+01
  7.535466e+00    1.087533e+01
  7.577919e+00    1.095103e+01
  7.620372e+00    1.103905e+01
  7.662824e+00    1.113153e+01
  7.705277e+00    1.121693e+01
  7.747729e+00    1.129896e+01
  7.790182e+00    1.136720e+01
  7.832635e+00    1.142255e+01
  7.875087e+00    1.145971e+01
  7.917540e+00    1.147596e+01
  7.959993e+00    1.147225e+01
  8.002445e+00    1.146103e+01
  8.044898e+00    1.142845e+01
  8.087350e+00    1.140081e+01
  8.129803e+00    1.136872e+01
  8.172256e+00    1.134184e+01
  8.214708e+00    1.132129e+01
  8.257161e+00    1.130538e+01
  8.299614e+00    1.129739e+01
  8.342066e+00    1.129648e+01
  8.384519e+00    1.130439e+01
  8.426971e+00    1.131164e+01
  8.469424e+00    1.132337e+01
  8.511877e+00    1.134014e+01
  8.554329e+00    1.135185e+01
  8.596782e+00    1.136820e+01
  8.639235e+00    1.138204e+01
  8.681687e+00    1.140078e+01
  8.724140e+00    1.141513e+01
  8.766592e+00    1.143326e+01
  8.809045e+00    1.144876e+01
  8.851498e+00    1.146936e+01
  8.893950e+00    1.149077e+01
  8.936403e+00    1.151290e+01
  8.978856e+00    1.154026e+01
  9.021308e+00    1.156704e+01
  9.063761e+00    1.159722e+01
  9.106213e+00    1.162764e+01
  9.148666e+00    1.185450e+01
  9.191119e+00    1.170494e+01
  9.233571e+00    1.174759e+01
  9.276024e+00    1.179747e+01
  9.318477e+00    1.183581e+01
  9.360929e+00    1.188892e+01
  9.403382e+00    1.194444e+01
  9.445834e+00    1.200728e+01
  9.488287e+00    1.207005e+01
  9.530740e+00    1.214396e+01
  9.573192e+00    1.222013e+01
  9.615645e+00    1.229416e+01
  9.658098e+00    1.237316e+01
  9.700550e+00    1.245325e+01
  9.743003e+00    1.253392e+01
  9.785455e+00    1.261880e+01
  9.827908e+00    1.270198e+01
  9.870361e+00    1.278372e+01
  9.912813e+00    1.285351e+01
  9.955266e+00    1.294060e+01
  9.997719e+00    1.301992e+01
  1.004017e+01    1.310366e+01
  1.008262e+01    1.318022e+01
  1.012508e+01    1.325970e+01
  1.016753e+01    1.334645e+01
  1.020998e+01    1.342976e+01
  1.025243e+01    1.351141e+01
  1.029489e+01    1.360411e+01
  1.033734e+01    1.368466e+01
  1.037979e+01    1.377513e+01
  1.042224e+01    1.385803e+01
  1.046470e+01    1.393647e+01
  1.050715e+01    1.401281e+01
  1.054960e+01    1.407714e+01
  1.059206e+01    1.414587e+01
  1.063451e+01    1.420304e+01
  1.067696e+01    1.426354e+01
  1.071941e+01    1.431674e+01
  1.076187e+01    1.437494e+01
  1.080432e+01    1.443139e+01
  1.084677e+01    1.449673e+01
  1.088922e+01    1.456468e+01
  1.093168e+01    1.464016e+01
  1.097413e+01    1.472139e+01
  1.101658e+01    1.481217e+01
  1.105903e+01    1.491129e+01
  1.110149e+01    1.501785e+01
  1.114394e+01    1.512539e+01
  1.118639e+01    1.522952e+01
  1.122884e+01    1.535638e+01
  1.127130e+01    1.548341e+01
  1.131375e+01    1.560827e+01
  1.135620e+01    1.573712e+01
  1.139866e+01    1.585966e+01
  1.144111e+01    1.598391e+01
  1.148356e+01    1.610988e+01
  1.152601e+01    1.624383e+01
  1.156847e+01    1.636669e+01
  1.161092e+01    1.649681e+01
  1.165337e+01    1.661587e+01
  1.169582e+01    1.673540e+01
  1.173828e+01    1.684478e+01
  1.178073e+01    1.697543e+01
  1.182318e+01    1.709229e+01
  1.186563e+01    1.721493e+01
  1.190809e+01    1.732958e+01
  1.195054e+01    1.744873e+01
  1.199299e+01    1.757580e+01
  1.203544e+01    1.770653e+01
  1.207790e+01    1.784602e+01
  1.212035e+01    1.798475e+01
  1.216280e+01    1.813996e+01
  1.220526e+01    1.828634e+01
  1.224771e+01    1.843284e+01
  1.229016e+01    1.858552e+01
  1.233261e+01    1.874078e+01
  1.237507e+01    1.890302e+01
  1.241752e+01    1.905368e+01
  1.245997e+01    1.925703e+01
  1.250242e+01    1.941483e+01
  1.254488e+01    1.958401e+01
  1.258733e+01    1.975621e+01
  1.262978e+01    1.994149e+01
  1.267223e+01    2.008745e+01
  1.271469e+01    2.026872e+01
  1.275714e+01    2.044522e+01
  1.279959e+01    2.062162e+01
  1.284204e+01    2.079426e+01
  1.288450e+01    2.096504e+01
  1.292695e+01    2.114169e+01
  1.296940e+01    2.131654e+01
  1.301185e+01    2.147788e+01
  1.305431e+01    2.166116e+01
  1.309676e+01    2.182535e+01
  1.313921e+01    2.199461e+01
  1.318167e+01    2.214606e+01
  1.322412e+01    2.232025e+01
  1.326657e+01    2.247349e+01
  1.330902e+01    2.263043e+01
  1.335148e+01    2.277888e+01
  1.339393e+01    2.292777e+01
  1.343638e+01    2.305956e+01
  1.347883e+01    2.320331e+01
  1.352129e+01    2.332054e+01
  1.356374e+01    2.345101e+01
  1.360619e+01    2.356300e+01
  1.364864e+01    2.367147e+01
  1.369110e+01    2.377133e+01
  1.373355e+01    2.385914e+01
  1.377600e+01    2.394700e+01
  1.381845e+01    2.401802e+01
  1.386091e+01    2.408759e+01
  1.390336e+01    2.415404e+01
  1.394581e+01    2.422500e+01
  1.398827e+01    2.428041e+01
  1.403072e+01    2.427399e+01
  1.407317e+01    2.428764e+01
  1.411562e+01    2.429766e+01
  1.415808e+01    2.430499e+01
  1.420053e+01    2.429641e+01
  1.424298e+01    2.428656e+01
  1.428543e+01    2.426237e+01
  1.432789e+01    2.423011e+01
  1.437034e+01    2.420009e+01
  1.441279e+01    2.414940e+01
  1.445524e+01    2.409088e+01
  1.449770e+01    2.401769e+01
  1.454015e+01    2.397715e+01
  1.458260e+01    2.389294e+01
  1.462505e+01    2.381493e+01
  1.466751e+01    2.371316e+01
  1.470996e+01    2.362306e+01
  1.475241e+01    2.351410e+01
  1.479487e+01    2.340596e+01
  1.483732e+01    2.330344e+01
  1.487977e+01    2.319864e+01
  1.492222e+01    2.306964e+01
  1.496468e+01    2.294804e+01
  1.500713e+01    2.283142e+01
  1.504958e+01    2.270195e+01
  1.509203e+01    2.256363e+01
  1.513449e+01    2.244274e+01
  1.517694e+01    2.229955e+01
  1.521939e+01    2.216978e+01
  1.526184e+01    2.203359e+01
  1.530430e+01    2.189179e+01
  1.534675e+01    2.175286e+01
  1.538920e+01    2.161183e+01
  1.543165e+01    2.147107e+01
  1.547411e+01    2.132435e+01
  1.551656e+01    2.117361e+01
  1.555901e+01    2.103154e+01
  1.560147e+01    2.087219e+01
  1.564392e+01    2.071417e+01
  1.568637e+01    2.055599e+01
  1.572882e+01    2.039750e+01
  1.577128e+01    2.024109e+01
  1.581373e+01    2.009031e+01
  1.585618e+01    1.992933e+01
  1.589863e+01    1.977674e+01
  1.594109e+01    1.962374e+01
  1.598354e+01    1.947827e+01
  1.602599e+01    1.934084e+01
  1.606844e+01    1.919532e+01
  1.611090e+01    1.905126e+01
  1.615335e+01    1.891643e+01
  1.619580e+01    1.878138e+01
  1.623825e+01    1.867305e+01
  1.628071e+01    1.856151e+01
  1.632316e+01    1.841706e+01
  1.636561e+01    1.827742e+01
  1.640806e+01    1.817023e+01
  1.645052e+01    1.804599e+01
  1.649297e+01    1.794243e+01
  1.653542e+01    1.782378e+01
  1.657788e+01    1.772075e+01
  1.662033e+01    1.760767e+01
  1.666278e+01    1.751660e+01
  1.670523e+01    1.740493e+01
  1.674769e+01    1.731510e+01
  1.679014e+01    1.720475e+01
  1.683259e+01    1.712293e+01
  1.687504e+01    1.702082e+01
  1.691750e+01    1.693669e+01
  1.695995e+01    1.685310e+01
  1.700240e+01    1.676606e+01
  1.704485e+01    1.669268e+01
  1.708731e+01    1.660072e+01
  1.712976e+01    1.653855e+01
  1.717221e+01    1.644966e+01
  1.721466e+01    1.639248e+01
  1.725712e+01    1.630262e+01
  1.729957e+01    1.625298e+01
  1.734202e+01    1.617264e+01
  1.738448e+01    1.612673e+01
  1.742693e+01    1.604215e+01
  1.746938e+01    1.600340e+01
  1.751183e+01    1.592378e+01
  1.755429e+01    1.588534e+01
  1.759674e+01    1.581577e+01
  1.763919e+01    1.576843e+01
  1.768164e+01    1.572718e+01
  1.772410e+01    1.566650e+01
  1.776655e+01    1.563063e+01
  1.780900e+01    1.557258e+01
  1.785145e+01    1.554846e+01
  1.789391e+01    1.549035e+01
  1.793636e+01    1.547077e+01
  1.797881e+01    1.540908e+01
  1.802126e+01    1.539387e+01
  1.806372e+01    1.532659e+01
  1.810617e+01    1.530154e+01
  1.814862e+01    1.525569e+01
  1.819108e+01    1.521293e+01
  1.823353e+01    1.518103e+01
  1.827598e+01    1.513062e+01
  1.831843e+01    1.509604e+01
  1.836089e+01    1.511239e+01
  1.840334e+01    1.500947e+01
  1.844579e+01    1.493765e+01
  1.848824e+01    1.490989e+01
  1.853070e+01    1.483325e+01
  1.857315e+01    1.480001e+01
  1.861560e+01    1.474783e+01
  1.865805e+01    1.468946e+01
  1.870051e+01    1.465453e+01
  1.874296e+01    1.458580e+01
  1.878541e+01    1.455326e+01
  1.882786e+01    1.448217e+01
  1.887032e+01    1.446096e+01
  1.891277e+01    1.437220e+01
  1.895522e+01    1.434006e+01
  1.899768e+01    1.427346e+01
  1.904013e+01    1.421673e+01
  1.908258e+01    1.418564e+01
  1.912503e+01    1.411451e+01
  1.916749e+01    1.407965e+01
  1.920994e+01    1.401168e+01
  1.925239e+01    1.397104e+01
  1.929484e+01    1.390526e+01
  1.933730e+01    1.386916e+01
  1.937975e+01    1.382667e+01
  1.942220e+01    1.374812e+01
  1.946465e+01    1.374434e+01
  1.950711e+01    1.364768e+01
  1.954956e+01    1.364670e+01
  1.959201e+01    1.353472e+01
  1.963446e+01    1.351702e+01
  1.967692e+01    1.344360e+01
  1.971937e+01    1.338346e+01
  1.976182e+01    1.332927e+01
  1.980427e+01    1.321993e+01
  1.984673e+01    1.316436e+01
  1.988918e+01    1.305768e+01
  1.993163e+01    1.302356e+01
  1.997409e+01    1.291686e+01
  2.001654e+01    1.285966e+01
  2.005899e+01    1.280847e+01
  2.010144e+01    1.270662e+01
  2.014390e+01    1.267438e+01
  2.018635e+01    1.257722e+01
  2.022880e+01    1.253051e+01
  2.027125e+01    1.245074e+01
  2.031371e+01    1.237827e+01
  2.035616e+01    1.232207e+01
  2.039861e+01    1.223132e+01
  2.044106e+01    1.220809e+01
  2.048352e+01    1.208663e+01
  2.052597e+01    1.204544e+01
  2.056842e+01    1.197027e+01
  2.061087e+01    1.189919e+01
  2.065333e+01    1.184446e+01
  2.069578e+01    1.176158e+01
  2.073823e+01    1.171107e+01
  2.078069e+01    1.173500e+01
  2.082314e+01    1.168396e+01
  2.086559e+01    1.165078e+01
  2.090804e+01    1.159167e+01
  2.095050e+01    1.156934e+01
  2.099295e+01    1.150074e+01
  2.103540e+01    1.144899e+01
  2.107785e+01    1.143634e+01
  2.112031e+01    1.134136e+01
  2.116276e+01    1.132335e+01
  2.120521e+01    1.125215e+01
  2.124766e+01    1.118865e+01
  2.129012e+01    1.117800e+01
  2.133257e+01    1.109205e+01
  2.137502e+01    1.109303e+01
  2.141747e+01    1.100583e+01
  2.145993e+01    1.093927e+01
  2.150238e+01    1.091999e+01
  2.154483e+01    1.083507e+01
  2.158729e+01    1.083250e+01
  2.162974e+01    1.072812e+01
  2.167219e+01    1.067731e+01
  2.171464e+01    1.063363e+01
  2.175710e+01    1.055884e+01
  2.179955e+01    1.052080e+01
  2.184200e+01    1.042405e+01
  2.188445e+01    1.037828e+01
  2.192691e+01    1.034040e+01
  2.196936e+01    1.025034e+01
  2.201181e+01    1.022157e+01
  2.205426e+01    1.012398e+01
  2.209672e+01    1.007784e+01
  2.213917e+01    1.003108e+01
  2.218162e+01    9.953629e+00
  2.222407e+01    9.917730e+00
  2.226653e+01    9.844731e+00
  2.230898e+01    9.777929e+00
  2.235143e+01    9.750454e+00
  2.239389e+01    9.671594e+00
  2.243634e+01    9.620803e+00
  2.247879e+01    9.576855e+00
  2.252124e+01    9.509151e+00
  2.256370e+01    9.475494e+00
  2.260615e+01    9.391145e+00
  2.264860e+01    9.343719e+00
  2.269105e+01    9.310843e+00
  2.273351e+01    9.234370e+00
  2.277596e+01    9.188788e+00
  2.281841e+01    9.149831e+00
  2.286086e+01    9.079143e+00
  2.290332e+01    9.050095e+00
  2.294577e+01    8.979500e+00
  2.298822e+01    8.931943e+00
  2.303067e+01    8.900786e+00
  2.307313e+01    8.817864e+00
  2.311558e+01    8.783018e+00
  2.315803e+01    8.732779e+00
  2.320048e+01    8.664779e+00
  2.324294e+01    8.645134e+00
  2.328539e+01    8.566123e+00
  2.332784e+01    8.511502e+00
  2.337030e+01    8.495375e+00
  2.341275e+01    8.400656e+00
  2.345520e+01    8.364079e+00
  2.349765e+01    8.332969e+00
  2.354011e+01    8.242250e+00
  2.358256e+01    8.189631e+00
  2.362501e+01    8.176485e+00
  2.366746e+01    8.089095e+00
  2.370992e+01    8.051189e+00
  2.375237e+01    8.007609e+00
  2.379482e+01    7.946312e+00
  2.383727e+01    7.901429e+00
  2.387973e+01    7.856620e+00
  2.392218e+01    7.782743e+00
  2.396463e+01    7.741507e+00
  2.400708e+01    7.671318e+00
  2.404954e+01    7.633929e+00
  2.409199e+01    7.588093e+00
  2.413444e+01    7.522187e+00
  2.417690e+01    7.478384e+00
  2.421935e+01    7.434055e+00
  2.426180e+01    7.379305e+00
  2.430425e+01    7.325985e+00
  2.434671e+01    7.286795e+00
  2.438916e+01    7.233059e+00
  2.443161e+01    7.176023e+00
  2.447406e+01    7.154556e+00
  2.451652e+01    7.095755e+00
  2.455897e+01    7.043407e+00
  2.460142e+01    7.019258e+00
  2.464387e+01    6.964717e+00
  2.468633e+01    6.908548e+00
  2.472878e+01    6.878808e+00
  2.477123e+01    6.839599e+00
  2.481368e+01    6.774490e+00
  2.485614e+01    6.758455e+00
  2.489859e+01    6.697744e+00
  2.494104e+01    6.653115e+00
  2.498350e+01    6.628703e+00
  2.502595e+01    6.575482e+00
  2.506840e+01    6.536214e+00
  2.511085e+01    6.511300e+00
  2.515331e+01    6.442110e+00
  2.519576e+01    6.419054e+00
  2.523821e+01    6.386908e+00
  2.528066e+01    6.338277e+00
  2.532312e+01    6.298716e+00
  2.536557e+01    6.289936e+00
  2.540802e+01    6.279473e+00
  2.545047e+01    6.262871e+00
  2.549293e+01    6.227217e+00
  2.553538e+01    6.207718e+00
  2.557783e+01    6.176279e+00
  2.562028e+01    6.154728e+00
  2.566274e+01    6.124243e+00
  2.570519e+01    6.086053e+00
  2.574764e+01    6.053180e+00
  2.579010e+01    6.056202e+00
  2.583255e+01    6.014094e+00
  2.587500e+01    5.988880e+00
  2.591745e+01    5.971192e+00
  2.595991e+01    5.952471e+00
  2.600236e+01    5.939645e+00
  2.604481e+01    5.918822e+00
  2.608726e+01    5.883911e+00
  2.612972e+01    5.868358e+00
  2.617217e+01    5.845584e+00
  2.621462e+01    5.834099e+00
  2.625707e+01    5.826611e+00
  2.629953e+01    5.803974e+00
  2.634198e+01    5.845271e+00
  2.638443e+01    5.907998e+00
  2.642688e+01    5.940736e+00
  2.646934e+01    5.963138e+00
  2.651179e+01    5.988634e+00
  2.655424e+01    6.004562e+00
  2.659669e+01    6.010854e+00
  2.663915e+01    6.012797e+00
  2.668160e+01    6.046953e+00
  2.672405e+01    6.035593e+00
  2.676651e+01    6.066956e+00
  2.680896e+01    6.080462e+00
  2.685141e+01    6.071342e+00
  2.689386e+01    6.081342e+00
  2.693632e+01    6.090830e+00
  2.697877e+01    6.111427e+00
  2.702122e+01    6.106340e+00
  2.706367e+01    6.109754e+00
  2.710613e+01    6.137192e+00
  2.714858e+01    6.129485e+00
  2.719103e+01    6.142856e+00
  2.723348e+01    6.134459e+00
  2.727594e+01    6.143795e+00
  2.731839e+01    6.151516e+00
  2.736084e+01    6.138287e+00
  2.740329e+01    6.157305e+00
  2.744575e+01    6.161800e+00
  2.748820e+01    6.158225e+00
  2.753065e+01    6.145482e+00
  2.757311e+01    6.162225e+00
  2.761556e+01    6.151631e+00
  2.765801e+01    6.162254e+00
  2.770046e+01    6.158949e+00
  2.774292e+01    6.164584e+00
  2.778537e+01    6.162400e+00
  2.782782e+01    6.180588e+00
  2.787027e+01    6.175353e+00
  2.791273e+01    6.182774e+00
  2.795518e+01    6.187460e+00
  2.799763e+01    6.189710e+00
  2.804008e+01    6.182868e+00
  2.808254e+01    6.189754e+00
  2.812499e+01    6.216235e+00
  2.816744e+01    6.193491e+00
  2.820989e+01    6.199529e+00
  2.825235e+01    6.205666e+00
  2.829480e+01    6.210837e+00
  2.833725e+01    6.203528e+00
  2.837971e+01    6.214552e+00
  2.842216e+01    6.207481e+00
  2.846461e+01    6.217216e+00
  2.850706e+01    6.222229e+00
  2.854952e+01    6.218155e+00
  2.859197e+01    6.216748e+00
  2.863442e+01    6.227614e+00
  2.867687e+01    6.231594e+00
  2.871933e+01    6.244742e+00
  2.876178e+01    6.240355e+00
  2.880423e+01    6.243436e+00
  2.884668e+01    6.232863e+00
  2.888914e+01    6.217773e+00
  2.893159e+01    6.205939e+00
  2.897404e+01    6.208577e+00
  2.901649e+01    6.199450e+00
  2.905895e+01    6.205361e+00
  2.910140e+01    6.175778e+00
  2.914385e+01    6.190797e+00
  2.918631e+01    6.166049e+00
  2.922876e+01    6.166066e+00
  2.927121e+01    6.150833e+00
  2.931366e+01    6.139316e+00
  2.935612e+01    6.140476e+00
  2.939857e+01    6.127656e+00
  2.944102e+01    6.130376e+00
  2.948347e+01    6.113880e+00
  2.952593e+01    6.103934e+00
  2.956838e+01    6.092698e+00
  2.961083e+01    6.099874e+00
  2.965328e+01    6.070083e+00
  2.969574e+01    6.078474e+00
  2.973819e+01    6.036552e+00
  2.978064e+01    6.062570e+00
  2.982309e+01    6.036064e+00
  2.986555e+01    6.037141e+00
  2.990800e+01    6.019875e+00
  2.995045e+01    6.012672e+00
  2.999290e+01    6.013280e+00
  3.003536e+01    5.998717e+00
  3.007781e+01    5.995798e+00
  3.012026e+01    5.968129e+00
  3.016272e+01    5.965655e+00
  3.020517e+01    5.954998e+00
  3.024762e+01    6.057925e+00
  3.029007e+01    5.967911e+00
  3.033253e+01    5.928511e+00
  3.037498e+01    5.912848e+00
  3.041743e+01    5.891236e+00
  3.045988e+01    5.888862e+00
  3.050234e+01    5.884912e+00
  3.054479e+01    5.869544e+00
  3.058724e+01    5.855620e+00
  3.062969e+01    5.846940e+00
  3.067215e+01    5.828169e+00
  3.071460e+01    5.822904e+00
  3.075705e+01    5.813818e+00
  3.079950e+01    5.803617e+00
  3.084196e+01    5.791120e+00
  3.088441e+01    5.769363e+00
  3.092686e+01    5.747663e+00
  3.096932e+01    5.751712e+00
  3.101177e+01    5.727780e+00
  3.105422e+01    5.717389e+00
  3.109667e+01    5.740775e+00
  3.113913e+01    5.666173e+00
  3.118158e+01    5.657484e+00
  3.122403e+01    5.648577e+00
  3.126648e+01    5.616580e+00
  3.130894e+01    5.605068e+00
  3.135139e+01    5.586829e+00
  3.139384e+01    5.568020e+00
  3.143629e+01    5.551680e+00
  3.147875e+01    5.520014e+00
  3.152120e+01    5.525973e+00
  3.156365e+01    5.500511e+00
  3.160610e+01    5.476220e+00
  3.164856e+01    5.469531e+00
  3.169101e+01    5.443922e+00
  3.173346e+01    5.430554e+00
  3.177592e+01    5.411735e+00
  3.181837e+01    5.389579e+00
  3.186082e+01    5.388790e+00
  3.190327e+01    5.370259e+00
  3.194573e+01    5.340134e+00
  3.198818e+01    5.338619e+00
  3.203063e+01    5.304434e+00
  3.207308e+01    5.277951e+00
  3.211554e+01    5.269164e+00
  3.215799e+01    5.244448e+00
  3.220044e+01    5.221227e+00
  3.224289e+01    5.219495e+00
  3.228535e+01    5.188649e+00
  3.232780e+01    5.160932e+00
  3.237025e+01    5.161963e+00
  3.241270e+01    5.123913e+00
  3.245516e+01    5.097248e+00
  3.249761e+01    5.101295e+00
  3.254006e+01    5.074636e+00
  3.258252e+01    5.042279e+00
  3.262497e+01    5.040235e+00
  3.266742e+01    5.015377e+00
  3.270987e+01    4.974614e+00
  3.275233e+01    4.978088e+00
  3.279478e+01    4.954776e+00
  3.283723e+01    4.918574e+00
  3.287968e+01    4.915889e+00
  3.292214e+01    4.892960e+00
  3.296459e+01    4.871753e+00
  3.300704e+01    4.844503e+00
  3.304949e+01    4.846248e+00
  3.309195e+01    4.816367e+00
  3.313440e+01    4.788463e+00
  3.317685e+01    4.787047e+00
  3.321930e+01    4.768045e+00
  3.326176e+01    4.746645e+00
  3.330421e+01    4.731676e+00
  3.334666e+01    4.702859e+00
  3.338911e+01    4.619443e+00
  3.343157e+01    4.554161e+00
  3.347402e+01    4.532365e+00
  3.351647e+01    4.489126e+00
  3.355893e+01    4.448228e+00
  3.360138e+01    4.409987e+00
  3.364383e+01    4.402827e+00
  3.368628e+01    4.359566e+00
  3.372874e+01    4.323546e+00
  3.377119e+01    4.298560e+00
  3.381364e+01    4.282010e+00
  3.385609e+01    4.238046e+00
  3.389855e+01    4.215623e+00
  3.394100e+01    4.182373e+00
  3.398345e+01    4.167433e+00
  3.402590e+01    4.135478e+00
  3.406836e+01    4.102548e+00
  3.411081e+01    4.083209e+00
  3.415326e+01    4.078499e+00
  3.419571e+01    4.032425e+00
  3.423817e+01    4.015178e+00
  3.428062e+01    3.986071e+00
  3.432307e+01    3.989208e+00
  3.436553e+01    3.958696e+00
  3.440798e+01    3.927691e+00
  3.445043e+01    3.909492e+00
  3.449288e+01    3.902451e+00
  3.453534e+01    3.898269e+00
  3.457779e+01    3.862378e+00
  3.462024e+01    3.837572e+00
  3.466269e+01    3.834967e+00
  3.470515e+01    3.806764e+00
  3.474760e+01    3.798697e+00
  3.479005e+01    3.762637e+00
  3.483250e+01    3.768275e+00
  3.487496e+01    3.719111e+00
  3.491741e+01    3.699501e+00
  3.495986e+01    3.694635e+00
  3.500231e+01    3.655656e+00
  3.504477e+01    3.639184e+00
  3.508722e+01    3.627718e+00
  3.512967e+01    3.594771e+00
  3.517213e+01    3.593202e+00
  3.521458e+01    3.567691e+00
  3.525703e+01    3.551477e+00
  3.529948e+01    3.529318e+00
  3.534194e+01    3.512854e+00
  3.538439e+01    3.494647e+00
  3.542684e+01    3.493983e+00
  3.546929e+01    3.460952e+00
  3.551175e+01    3.454533e+00
  3.555420e+01    3.435242e+00
  3.559665e+01    3.428540e+00
  3.563910e+01    3.405505e+00
  3.568156e+01    3.403545e+00
  3.572401e+01    3.380267e+00
  3.576646e+01    3.378050e+00
  3.580891e+01    3.360073e+00
  3.585137e+01    3.348091e+00
  3.589382e+01    3.333013e+00
  3.593627e+01    3.323887e+00
  3.597873e+01    3.308321e+00
  3.602118e+01    3.310577e+00
  3.606363e+01    3.292724e+00
  3.610608e+01    3.284318e+00
  3.614854e+01    3.268894e+00
  3.619099e+01    3.266988e+00
  3.623344e+01    3.258468e+00
  3.627589e+01    3.246002e+00
  3.631835e+01    3.238700e+00
  3.636080e+01    3.223558e+00
  3.640325e+01    3.228485e+00
  3.644570e+01    3.212979e+00
  3.648816e+01    3.199138e+00
  3.653061e+01    3.201763e+00
  3.657306e+01    3.176243e+00
  3.661551e+01    3.175951e+00
  3.665797e+01    3.154859e+00
  3.670042e+01    3.154576e+00
  3.674287e+01    3.143909e+00
  3.678532e+01    3.121130e+00
  3.682778e+01    3.121782e+00
  3.687023e+01    3.112684e+00
  3.691268e+01    3.105759e+00
  3.695514e+01    3.085000e+00
  3.699759e+01    3.085933e+00
  3.704004e+01    3.067736e+00
  3.708249e+01    3.064396e+00
  3.712495e+01    3.046395e+00
  3.716740e+01    3.040104e+00
  3.720985e+01    3.027140e+00
  3.725230e+01    3.019405e+00
  3.729476e+01    3.010065e+00
  3.733721e+01    2.997987e+00
  3.737966e+01    2.987498e+00
  3.742211e+01    2.978528e+00
  3.746457e+01    2.967512e+00
  3.750702e+01    2.964375e+00
  3.754947e+01    2.948618e+00
  3.759192e+01    2.948727e+00
  3.763438e+01    2.943936e+00
  3.767683e+01    2.934888e+00
  3.771928e+01    2.932200e+00
  3.776174e+01    2.924508e+00
  3.780419e+01    2.929114e+00
  3.784664e+01    2.923008e+00
  3.788909e+01    2.917444e+00
  3.793155e+01    2.917334e+00
  3.797400e+01    2.925761e+00
  3.801645e+01    2.918589e+00
  3.805890e+01    2.928579e+00
  3.810136e+01    2.931529e+00
  3.814381e+01    2.927854e+00
  3.818626e+01    2.938113e+00
  3.822871e+01    2.947954e+00
  3.827117e+01    2.949900e+00
  3.831362e+01    2.953994e+00
  3.835607e+01    2.967677e+00
  3.839852e+01    2.983564e+00
  3.844098e+01    2.990035e+00
  3.848343e+01    3.006950e+00
  3.852588e+01    3.016760e+00
  3.856834e+01    3.038264e+00
  3.861079e+01    3.061558e+00
  3.865324e+01    3.080032e+00
  3.869569e+01    3.100090e+00
  3.873815e+01    3.130314e+00
  3.878060e+01    3.156772e+00
  3.882305e+01    3.194495e+00
  3.886550e+01    3.222812e+00
  3.890796e+01    3.264851e+00
  3.895041e+01    3.283210e+00
  3.899286e+01    3.296118e+00
  3.903531e+01    3.307505e+00
  3.907777e+01    3.317147e+00
  3.912022e+01    3.335891e+00
  3.916267e+01    3.359203e+00
  3.920512e+01    3.371122e+00
  3.924758e+01    3.391411e+00
  3.929003e+01    3.409291e+00
  3.933248e+01    3.432377e+00
  3.937494e+01    3.435171e+00
  3.941739e+01    3.426371e+00
  3.945984e+01    3.420380e+00
  3.950229e+01    3.411647e+00
  3.954475e+01    3.404075e+00
  3.958720e+01    3.395683e+00
  3.962965e+01    3.389409e+00
  3.967210e+01    3.382145e+00
  3.971456e+01    3.373515e+00
  3.975701e+01    3.365066e+00
  3.979946e+01    3.356671e+00
  3.984191e+01    3.351393e+00
  3.988437e+01    3.344435e+00
  3.992682e+01    3.336807e+00
  3.996927e+01    3.330409e+00
  4.001172e+01    3.322075e+00
  4.005418e+01    3.314280e+00
  4.009663e+01    3.303274e+00
  4.013908e+01    3.300002e+00
  4.018153e+01    3.294649e+00
  4.022399e+01    3.285074e+00
  4.026644e+01    3.275283e+00
  4.030889e+01    3.267148e+00
  4.035135e+01    3.258268e+00
  4.039380e+01    3.253880e+00
  4.043625e+01    3.246884e+00
  4.047870e+01    3.236703e+00
  4.052116e+01    3.230978e+00
  4.056361e+01    3.225926e+00
  4.060606e+01    3.214343e+00
  4.064851e+01    3.211842e+00
  4.069097e+01    3.207571e+00
  4.073342e+01    3.196285e+00
  4.077587e+01    3.191992e+00
  4.081832e+01    3.182957e+00
  4.086078e+01    3.178896e+00
  4.090323e+01    3.170429e+00
  4.094568e+01    3.161377e+00
  4.098813e+01    3.154583e+00
  4.103059e+01    3.148561e+00
  4.107304e+01    3.140293e+00
  4.111549e+01    3.132737e+00
  4.115795e+01    3.129402e+00
  4.120040e+01    3.120469e+00
  4.124285e+01    3.115449e+00
  4.128530e+01    3.105507e+00
  4.132776e+01    3.101902e+00
  4.137021e+01    3.094525e+00
  4.141266e+01    3.083846e+00
  4.145511e+01    3.080459e+00
  4.149757e+01    3.076046e+00
  4.154002e+01    3.067803e+00
  4.158247e+01    3.062179e+00
  4.162492e+01    3.053622e+00
  4.166738e+01    3.048235e+00
  4.170983e+01    3.040075e+00
  4.175228e+01    3.039848e+00
  4.179473e+01    3.024856e+00
  4.183719e+01    3.022355e+00
  4.187964e+01    3.008312e+00
  4.192209e+01    3.014083e+00
  4.196455e+01    2.997821e+00
  4.200700e+01    2.995714e+00
  4.204945e+01    2.987441e+00
  4.209190e+01    2.986986e+00
  4.213436e+01    2.973920e+00
  4.217681e+01    2.970711e+00
  4.221926e+01    2.956179e+00
  4.226171e+01    2.954740e+00
  4.230417e+01    2.935731e+00
  4.234662e+01    2.933752e+00
  4.238907e+01    2.910862e+00
  4.243152e+01    2.919831e+00
  4.247398e+01    2.892678e+00
  4.251643e+01    2.867542e+00
  4.255888e+01    2.781496e+00
  4.260133e+01    2.627115e+00
  4.264379e+01    2.534829e+00
