# == pyFAI calibration ==
# Distance Sample to Detector: 0.16467985556231649 m
# PONI: 9.242e-02, 8.817e-02 m
# Rotations: 0.000148 0.000104 0.000000 rad
# 
# == Fit2d calibration ==
# Distance Sample-beamCenter: 164.680 mm
# Center: x=1175.307, y=1232.557 pix
# Tilt: 0.010 deg  TiltPlanRot: 144.812 deg
# 
# Detector Eiger 4M	 PixelSize= 7.500e-05, 7.500e-05 m
#    Detector has a mask: True 
#    Detector has a dark current: False 
#    detector has a flat field: False 
# 
# Wavelength: 9.537246033323096e-11 m
# Mask applied: from detector
# Dark current applied: False
# Flat field applied: False
# Polarization factor: None
# Normalization factor: 1.0
# --> /gpfs/easy/data/visitor/ihsc1713/id13/XXPROCESS/Cfluct_empty_avg.dat
#       q_nm^-1             I 
  2.336148e-01    5.976340e+01
  2.760674e-01    4.653461e+01
  3.185201e-01    3.995535e+01
  3.609727e-01    3.517241e+01
  4.034253e-01    3.182475e+01
  4.458779e-01    2.928211e+01
  4.883306e-01    2.731809e+01
  5.307832e-01    2.562033e+01
  5.732358e-01    2.404234e+01
  6.156884e-01    2.259048e+01
  6.581411e-01    2.123475e+01
  7.005937e-01    2.002013e+01
  7.430463e-01    1.894540e+01
  7.854989e-01    1.794227e+01
  8.279516e-01    1.711503e+01
  8.704042e-01    1.631164e+01
  9.128568e-01    1.566216e+01
  9.553094e-01    1.504752e+01
  9.977621e-01    1.451889e+01
  1.040215e+00    1.403371e+01
  1.082667e+00    1.360026e+01
  1.125120e+00    1.324530e+01
  1.167573e+00    1.290615e+01
  1.210025e+00    1.261228e+01
  1.252478e+00    1.234221e+01
  1.294930e+00    1.209315e+01
  1.337383e+00    1.186947e+01
  1.379836e+00    1.166280e+01
  1.422288e+00    1.149927e+01
  1.464741e+00    1.134114e+01
  1.507194e+00    1.118850e+01
  1.549646e+00    1.104833e+01
  1.592099e+00    1.092599e+01
  1.634551e+00    1.082146e+01
  1.677004e+00    1.072496e+01
  1.719457e+00    1.062613e+01
  1.761909e+00    1.055960e+01
  1.804362e+00    1.049446e+01
  1.846815e+00    1.041798e+01
  1.889267e+00    1.037563e+01
  1.931720e+00    1.032639e+01
  1.974172e+00    1.028240e+01
  2.016625e+00    1.024750e+01
  2.059078e+00    1.021986e+01
  2.101530e+00    1.020528e+01
  2.143983e+00    1.018944e+01
  2.186436e+00    1.017668e+01
  2.228888e+00    1.018408e+01
  2.271341e+00    1.018401e+01
  2.313793e+00    1.018924e+01
  2.356246e+00    1.020643e+01
  2.398699e+00    1.022723e+01
  2.441151e+00    1.024638e+01
  2.483604e+00    1.027706e+01
  2.526057e+00    1.030739e+01
  2.568509e+00    1.034376e+01
  2.610962e+00    1.038552e+01
  2.653414e+00    1.043466e+01
  2.695867e+00    1.048604e+01
  2.738320e+00    1.054631e+01
  2.780772e+00    1.060901e+01
  2.823225e+00    1.068078e+01
  2.865678e+00    1.075005e+01
  2.908130e+00    1.082625e+01
  2.950583e+00    1.090873e+01
  2.993035e+00    1.099377e+01
  3.035488e+00    1.108187e+01
  3.077941e+00    1.117175e+01
  3.120393e+00    1.127938e+01
  3.162846e+00    1.137806e+01
  3.205299e+00    1.149932e+01
  3.247751e+00    1.162734e+01
  3.290204e+00    1.177625e+01
  3.332656e+00    1.193477e+01
  3.375109e+00    1.212953e+01
  3.417562e+00    1.236593e+01
  3.460014e+00    1.265603e+01
  3.502467e+00    1.302604e+01
  3.544920e+00    1.348508e+01
  3.587372e+00    1.406409e+01
  3.629825e+00    1.478399e+01
  3.672277e+00    1.566341e+01
  3.714730e+00    1.667646e+01
  3.757183e+00    1.785202e+01
  3.799635e+00    1.917946e+01
  3.842088e+00    2.058417e+01
  3.884541e+00    2.188497e+01
  3.926993e+00    2.308530e+01
  3.969446e+00    2.383332e+01
  4.011898e+00    2.404292e+01
  4.054351e+00    2.348882e+01
  4.096804e+00    2.243046e+01
  4.139256e+00    2.103299e+01
  4.181709e+00    1.951205e+01
  4.224162e+00    1.810373e+01
  4.266614e+00    1.687547e+01
  4.309067e+00    1.591643e+01
  4.351519e+00    1.520706e+01
  4.393972e+00    1.467315e+01
  4.436425e+00    1.421225e+01
  4.478877e+00    1.386740e+01
  4.521330e+00    1.357471e+01
  4.563783e+00    1.333831e+01
  4.606235e+00    1.309886e+01
  4.648688e+00    1.286556e+01
  4.691140e+00    1.263135e+01
  4.733593e+00    1.239907e+01
  4.776046e+00    1.217992e+01
  4.818498e+00    1.194702e+01
  4.860951e+00    1.173271e+01
  4.903404e+00    1.149626e+01
  4.945856e+00    1.127620e+01
  4.988309e+00    1.105325e+01
  5.030761e+00    1.085708e+01
  5.073214e+00    1.064168e+01
  5.115667e+00    1.042502e+01
  5.158119e+00    1.021189e+01
  5.200572e+00    1.001885e+01
  5.243025e+00    9.826210e+00
  5.285477e+00    9.635158e+00
  5.327930e+00    9.451404e+00
  5.370382e+00    9.259320e+00
  5.412835e+00    9.081776e+00
  5.455288e+00    8.904935e+00
  5.497740e+00    8.736173e+00
  5.540193e+00    8.577836e+00
  5.582646e+00    8.420936e+00
  5.625098e+00    8.270267e+00
  5.667551e+00    8.126606e+00
  5.710003e+00    7.984945e+00
  5.752456e+00    7.848916e+00
  5.794909e+00    7.720802e+00
  5.837361e+00    7.593936e+00
  5.879814e+00    7.474125e+00
  5.922267e+00    7.361193e+00
  5.964719e+00    7.255180e+00
  6.007172e+00    7.146080e+00
  6.049624e+00    7.048213e+00
  6.092077e+00    6.952420e+00
  6.134530e+00    6.861833e+00
  6.176982e+00    6.783677e+00
  6.219435e+00    6.697494e+00
  6.261888e+00    6.620681e+00
  6.304340e+00    6.547058e+00
  6.346793e+00    6.474224e+00
  6.389245e+00    6.412926e+00
  6.431698e+00    6.354231e+00
  6.474151e+00    6.297194e+00
  6.516603e+00    6.245977e+00
  6.559056e+00    6.194257e+00
  6.601509e+00    6.149665e+00
  6.643961e+00    6.109194e+00
  6.686414e+00    6.077513e+00
  6.728866e+00    6.041020e+00
  6.771319e+00    6.011172e+00
  6.813772e+00    5.983686e+00
  6.856224e+00    5.959671e+00
  6.898677e+00    5.940841e+00
  6.941130e+00    5.925796e+00
  6.983582e+00    5.911423e+00
  7.026035e+00    5.896096e+00
  7.068487e+00    5.892460e+00
  7.110940e+00    5.887596e+00
  7.153393e+00    5.888460e+00
  7.195845e+00    5.889669e+00
  7.238298e+00    5.896300e+00
  7.280751e+00    5.911731e+00
  7.323203e+00    5.930766e+00
  7.365656e+00    5.961302e+00
  7.408108e+00    5.996205e+00
  7.450561e+00    6.041849e+00
  7.493014e+00    6.097171e+00
  7.535466e+00    6.161427e+00
  7.577919e+00    6.240310e+00
  7.620372e+00    6.320571e+00
  7.662824e+00    6.407731e+00
  7.705277e+00    6.493648e+00
  7.747729e+00    6.572183e+00
  7.790182e+00    6.636103e+00
  7.832635e+00    6.684797e+00
  7.875087e+00    6.709667e+00
  7.917540e+00    6.708300e+00
  7.959993e+00    6.683776e+00
  8.002445e+00    6.642895e+00
  8.044898e+00    6.581320e+00
  8.087350e+00    6.515164e+00
  8.129803e+00    6.446677e+00
  8.172256e+00    6.381112e+00
  8.214708e+00    6.324267e+00
  8.257161e+00    6.273551e+00
  8.299614e+00    6.233776e+00
  8.342066e+00    6.197194e+00
  8.384519e+00    6.171695e+00
  8.426971e+00    6.147554e+00
  8.469424e+00    6.129677e+00
  8.511877e+00    6.113519e+00
  8.554329e+00    6.091665e+00
  8.596782e+00    6.074060e+00
  8.639235e+00    6.056593e+00
  8.681687e+00    6.040994e+00
  8.724140e+00    6.020840e+00
  8.766592e+00    6.003865e+00
  8.809045e+00    5.987004e+00
  8.851498e+00    5.969274e+00
  8.893950e+00    5.954530e+00
  8.936403e+00    5.937181e+00
  8.978856e+00    5.926404e+00
  9.021308e+00    5.917119e+00
  9.063761e+00    5.907845e+00
  9.106213e+00    5.903750e+00
  9.148666e+00    6.088799e+00
  9.191119e+00    5.899003e+00
  9.233571e+00    5.902143e+00
  9.276024e+00    5.910843e+00
  9.318477e+00    5.917415e+00
  9.360929e+00    5.933417e+00
  9.403382e+00    5.944697e+00
  9.445834e+00    5.970171e+00
  9.488287e+00    5.996612e+00
  9.530740e+00    6.026843e+00
  9.573192e+00    6.063718e+00
  9.615645e+00    6.099787e+00
  9.658098e+00    6.142498e+00
  9.700550e+00    6.182452e+00
  9.743003e+00    6.221133e+00
  9.785455e+00    6.262604e+00
  9.827908e+00    6.303699e+00
  9.870361e+00    6.339839e+00
  9.912813e+00    6.369527e+00
  9.955266e+00    6.409593e+00
  9.997719e+00    6.436819e+00
  1.004017e+01    6.468134e+00
  1.008262e+01    6.493592e+00
  1.012508e+01    6.520268e+00
  1.016753e+01    6.550156e+00
  1.020998e+01    6.579133e+00
  1.025243e+01    6.604239e+00
  1.029489e+01    6.633365e+00
  1.033734e+01    6.661137e+00
  1.037979e+01    6.685186e+00
  1.042224e+01    6.706815e+00
  1.046470e+01    6.718169e+00
  1.050715e+01    6.728853e+00
  1.054960e+01    6.724578e+00
  1.059206e+01    6.717661e+00
  1.063451e+01    6.698370e+00
  1.067696e+01    6.676840e+00
  1.071941e+01    6.648031e+00
  1.076187e+01    6.616405e+00
  1.080432e+01    6.583927e+00
  1.084677e+01    6.557145e+00
  1.088922e+01    6.533428e+00
  1.093168e+01    6.512520e+00
  1.097413e+01    6.497747e+00
  1.101658e+01    6.492547e+00
  1.105903e+01    6.507966e+00
  1.110149e+01    6.511584e+00
  1.114394e+01    6.511576e+00
  1.118639e+01    6.522954e+00
  1.122884e+01    6.552629e+00
  1.127130e+01    6.577992e+00
  1.131375e+01    6.602632e+00
  1.135620e+01    6.623386e+00
  1.139866e+01    6.641667e+00
  1.144111e+01    6.661503e+00
  1.148356e+01    6.675114e+00
  1.152601e+01    6.691834e+00
  1.156847e+01    6.700782e+00
  1.161092e+01    6.707369e+00
  1.165337e+01    6.704743e+00
  1.169582e+01    6.695126e+00
  1.173828e+01    6.682680e+00
  1.178073e+01    6.669789e+00
  1.182318e+01    6.647638e+00
  1.186563e+01    6.627880e+00
  1.190809e+01    6.606924e+00
  1.195054e+01    6.585779e+00
  1.199299e+01    6.563390e+00
  1.203544e+01    6.543352e+00
  1.207790e+01    6.530453e+00
  1.212035e+01    6.514801e+00
  1.216280e+01    6.508552e+00
  1.220526e+01    6.499608e+00
  1.224771e+01    6.488362e+00
  1.229016e+01    6.476985e+00
  1.233261e+01    6.469073e+00
  1.237507e+01    6.460406e+00
  1.241752e+01    6.448012e+00
  1.245997e+01    6.452711e+00
  1.250242e+01    6.444902e+00
  1.254488e+01    6.439359e+00
  1.258733e+01    6.437785e+00
  1.262978e+01    6.440195e+00
  1.267223e+01    6.418460e+00
  1.271469e+01    6.411156e+00
  1.275714e+01    6.398954e+00
  1.279959e+01    6.392124e+00
  1.284204e+01    6.383193e+00
  1.288450e+01    6.372932e+00
  1.292695e+01    6.363772e+00
  1.296940e+01    6.357737e+00
  1.301185e+01    6.344312e+00
  1.305431e+01    6.339886e+00
  1.309676e+01    6.327820e+00
  1.313921e+01    6.321447e+00
  1.318167e+01    6.306978e+00
  1.322412e+01    6.301087e+00
  1.326657e+01    6.288755e+00
  1.330902e+01    6.280851e+00
  1.335148e+01    6.267264e+00
  1.339393e+01    6.260880e+00
  1.343638e+01    6.244133e+00
  1.347883e+01    6.235848e+00
  1.352129e+01    6.219810e+00
  1.356374e+01    6.206790e+00
  1.360619e+01    6.191333e+00
  1.364864e+01    6.174744e+00
  1.369110e+01    6.160792e+00
  1.373355e+01    6.143844e+00
  1.377600e+01    6.127372e+00
  1.381845e+01    6.110399e+00
  1.386091e+01    6.096026e+00
  1.390336e+01    6.086188e+00
  1.394581e+01    6.109507e+00
  1.398827e+01    6.103916e+00
  1.403072e+01    6.041830e+00
  1.407317e+01    6.014400e+00
  1.411562e+01    6.000727e+00
  1.415808e+01    5.983415e+00
  1.420053e+01    5.970105e+00
  1.424298e+01    5.952962e+00
  1.428543e+01    5.940496e+00
  1.432789e+01    5.929525e+00
  1.437034e+01    5.919545e+00
  1.441279e+01    5.908257e+00
  1.445524e+01    5.894720e+00
  1.449770e+01    5.881975e+00
  1.454015e+01    5.884682e+00
  1.458260e+01    5.875189e+00
  1.462505e+01    5.864695e+00
  1.466751e+01    5.843246e+00
  1.470996e+01    5.833859e+00
  1.475241e+01    5.821680e+00
  1.479487e+01    5.811173e+00
  1.483732e+01    5.802115e+00
  1.487977e+01    5.794226e+00
  1.492222e+01    5.781301e+00
  1.496468e+01    5.768943e+00
  1.500713e+01    5.762268e+00
  1.504958e+01    5.753089e+00
  1.509203e+01    5.742625e+00
  1.513449e+01    5.735230e+00
  1.517694e+01    5.727116e+00
  1.521939e+01    5.719735e+00
  1.526184e+01    5.713366e+00
  1.530430e+01    5.704439e+00
  1.534675e+01    5.695383e+00
  1.538920e+01    5.686410e+00
  1.543165e+01    5.677918e+00
  1.547411e+01    5.661655e+00
  1.551656e+01    5.643411e+00
  1.555901e+01    5.626215e+00
  1.560147e+01    5.598494e+00
  1.564392e+01    5.569829e+00
  1.568637e+01    5.535240e+00
  1.572882e+01    5.499945e+00
  1.577128e+01    5.462610e+00
  1.581373e+01    5.426076e+00
  1.585618e+01    5.384016e+00
  1.589863e+01    5.347973e+00
  1.594109e+01    5.309645e+00
  1.598354e+01    5.276080e+00
  1.602599e+01    5.249046e+00
  1.606844e+01    5.209386e+00
  1.611090e+01    5.173642e+00
  1.615335e+01    5.143286e+00
  1.619580e+01    5.118961e+00
  1.623825e+01    5.108851e+00
  1.628071e+01    5.105641e+00
  1.632316e+01    5.053781e+00
  1.636561e+01    5.010367e+00
  1.640806e+01    4.987456e+00
  1.645052e+01    4.960343e+00
  1.649297e+01    4.940431e+00
  1.653542e+01    4.916945e+00
  1.657788e+01    4.893349e+00
  1.662033e+01    4.869311e+00
  1.666278e+01    4.851782e+00
  1.670523e+01    4.827044e+00
  1.674769e+01    4.808794e+00
  1.679014e+01    4.785141e+00
  1.683259e+01    4.768806e+00
  1.687504e+01    4.748068e+00
  1.691750e+01    4.731012e+00
  1.695995e+01    4.715883e+00
  1.700240e+01    4.696939e+00
  1.704485e+01    4.682792e+00
  1.708731e+01    4.665463e+00
  1.712976e+01    4.655411e+00
  1.717221e+01    4.636016e+00
  1.721466e+01    4.627439e+00
  1.725712e+01    4.609730e+00
  1.729957e+01    4.602046e+00
  1.734202e+01    4.587896e+00
  1.738448e+01    4.580714e+00
  1.742693e+01    4.567579e+00
  1.746938e+01    4.562004e+00
  1.751183e+01    4.551300e+00
  1.755429e+01    4.547790e+00
  1.759674e+01    4.537441e+00
  1.763919e+01    4.531986e+00
  1.768164e+01    4.529874e+00
  1.772410e+01    4.523781e+00
  1.776655e+01    4.521593e+00
  1.780900e+01    4.515669e+00
  1.785145e+01    4.517957e+00
  1.789391e+01    4.517024e+00
  1.793636e+01    4.516772e+00
  1.797881e+01    4.509758e+00
  1.802126e+01    4.509990e+00
  1.806372e+01    4.502772e+00
  1.810617e+01    4.499632e+00
  1.814862e+01    4.494716e+00
  1.819108e+01    4.485950e+00
  1.823353e+01    4.478243e+00
  1.827598e+01    4.465535e+00
  1.831843e+01    4.455241e+00
  1.836089e+01    4.519851e+00
  1.840334e+01    4.420362e+00
  1.844579e+01    4.396919e+00
  1.848824e+01    4.378086e+00
  1.853070e+01    4.353479e+00
  1.857315e+01    4.330455e+00
  1.861560e+01    4.306576e+00
  1.865805e+01    4.277836e+00
  1.870051e+01    4.254831e+00
  1.874296e+01    4.225337e+00
  1.878541e+01    4.196719e+00
  1.882786e+01    4.163670e+00
  1.887032e+01    4.140985e+00
  1.891277e+01    4.108128e+00
  1.895522e+01    4.077933e+00
  1.899768e+01    4.044370e+00
  1.904013e+01    4.014487e+00
  1.908258e+01    3.989516e+00
  1.912503e+01    3.959056e+00
  1.916749e+01    3.934811e+00
  1.920994e+01    3.905471e+00
  1.925239e+01    3.877325e+00
  1.929484e+01    3.850516e+00
  1.933730e+01    3.825976e+00
  1.937975e+01    3.799827e+00
  1.942220e+01    3.769731e+00
  1.946465e+01    3.751167e+00
  1.950711e+01    3.716553e+00
  1.954956e+01    3.694071e+00
  1.959201e+01    3.656078e+00
  1.963446e+01    3.636318e+00
  1.967692e+01    3.605292e+00
  1.971937e+01    3.572324e+00
  1.976182e+01    3.541739e+00
  1.980427e+01    3.500529e+00
  1.984673e+01    3.469935e+00
  1.988918e+01    3.429958e+00
  1.993163e+01    3.402806e+00
  1.997409e+01    3.363306e+00
  2.001654e+01    3.333675e+00
  2.005899e+01    3.304056e+00
  2.010144e+01    3.265756e+00
  2.014390e+01    3.238754e+00
  2.018635e+01    3.205174e+00
  2.022880e+01    3.180967e+00
  2.027125e+01    3.149518e+00
  2.031371e+01    3.117432e+00
  2.035616e+01    3.085310e+00
  2.039861e+01    3.054668e+00
  2.044106e+01    3.032855e+00
  2.048352e+01    2.994897e+00
  2.052597e+01    2.970553e+00
  2.056842e+01    2.939927e+00
  2.061087e+01    2.914773e+00
  2.065333e+01    2.889132e+00
  2.069578e+01    2.861175e+00
  2.073823e+01    2.837801e+00
  2.078069e+01    2.834488e+00
  2.082314e+01    2.811706e+00
  2.086559e+01    2.798032e+00
  2.090804e+01    2.780037e+00
  2.095050e+01    2.767368e+00
  2.099295e+01    2.747082e+00
  2.103540e+01    2.730676e+00
  2.107785e+01    2.721276e+00
  2.112031e+01    2.699023e+00
  2.116276e+01    2.690804e+00
  2.120521e+01    2.672892e+00
  2.124766e+01    2.656733e+00
  2.129012e+01    2.651058e+00
  2.133257e+01    2.634420e+00
  2.137502e+01    2.629363e+00
  2.141747e+01    2.614562e+00
  2.145993e+01    2.603993e+00
  2.150238e+01    2.594760e+00
  2.154483e+01    2.572818e+00
  2.158729e+01    2.562569e+00
  2.162974e+01    2.539929e+00
  2.167219e+01    2.521731e+00
  2.171464e+01    2.504254e+00
  2.175710e+01    2.482578e+00
  2.179955e+01    2.463940e+00
  2.184200e+01    2.436120e+00
  2.188445e+01    2.419861e+00
  2.192691e+01    2.401510e+00
  2.196936e+01    2.374513e+00
  2.201181e+01    2.359430e+00
  2.205426e+01    2.332376e+00
  2.209672e+01    2.315876e+00
  2.213917e+01    2.296706e+00
  2.218162e+01    2.277055e+00
  2.222407e+01    2.262262e+00
  2.226653e+01    2.242623e+00
  2.230898e+01    2.224524e+00
  2.235143e+01    2.210960e+00
  2.239389e+01    2.194377e+00
  2.243634e+01    2.179171e+00
  2.247879e+01    2.165984e+00
  2.252124e+01    2.150977e+00
  2.256370e+01    2.139823e+00
  2.260615e+01    2.122598e+00
  2.264860e+01    2.111180e+00
  2.269105e+01    2.099950e+00
  2.273351e+01    2.084031e+00
  2.277596e+01    2.074059e+00
  2.281841e+01    2.062284e+00
  2.286086e+01    2.046460e+00
  2.290332e+01    2.035596e+00
  2.294577e+01    2.019067e+00
  2.298822e+01    2.006883e+00
  2.303067e+01    1.993397e+00
  2.307313e+01    1.975443e+00
  2.311558e+01    1.965967e+00
  2.315803e+01    1.952199e+00
  2.320048e+01    1.937793e+00
  2.324294e+01    1.932997e+00
  2.328539e+01    1.915877e+00
  2.332784e+01    1.905974e+00
  2.337030e+01    1.899115e+00
  2.341275e+01    1.880491e+00
  2.345520e+01    1.871359e+00
  2.349765e+01    1.860498e+00
  2.354011e+01    1.843194e+00
  2.358256e+01    1.829538e+00
  2.362501e+01    1.824539e+00
  2.366746e+01    1.808258e+00
  2.370992e+01    1.798958e+00
  2.375237e+01    1.792103e+00
  2.379482e+01    1.787061e+00
  2.383727e+01    1.784281e+00
  2.387973e+01    1.769576e+00
  2.392218e+01    1.747925e+00
  2.396463e+01    1.736061e+00
  2.400708e+01    1.723376e+00
  2.404954e+01    1.715548e+00
  2.409199e+01    1.706332e+00
  2.413444e+01    1.695490e+00
  2.417690e+01    1.687696e+00
  2.421935e+01    1.681736e+00
  2.426180e+01    1.672105e+00
  2.430425e+01    1.663773e+00
  2.434671e+01    1.658705e+00
  2.438916e+01    1.651134e+00
  2.443161e+01    1.642672e+00
  2.447406e+01    1.640316e+00
  2.451652e+01    1.632921e+00
  2.455897e+01    1.625496e+00
  2.460142e+01    1.623765e+00
  2.464387e+01    1.617029e+00
  2.468633e+01    1.610292e+00
  2.472878e+01    1.608320e+00
  2.477123e+01    1.602036e+00
  2.481368e+01    1.594749e+00
  2.485614e+01    1.594345e+00
  2.489859e+01    1.586515e+00
  2.494104e+01    1.580184e+00
  2.498350e+01    1.579011e+00
  2.502595e+01    1.571847e+00
  2.506840e+01    1.566448e+00
  2.511085e+01    1.563836e+00
  2.515331e+01    1.554312e+00
  2.519576e+01    1.550613e+00
  2.523821e+01    1.548638e+00
  2.528066e+01    1.541031e+00
  2.532312e+01    1.532815e+00
  2.536557e+01    1.533328e+00
  2.540802e+01    1.530968e+00
  2.545047e+01    1.527857e+00
  2.549293e+01    1.522998e+00
  2.553538e+01    1.519355e+00
  2.557783e+01    1.515056e+00
  2.562028e+01    1.512476e+00
  2.566274e+01    1.510300e+00
  2.570519e+01    1.504977e+00
  2.574764e+01    1.498514e+00
  2.579010e+01    1.498249e+00
  2.583255e+01    1.491608e+00
  2.587500e+01    1.487495e+00
  2.591745e+01    1.486006e+00
  2.595991e+01    1.481595e+00
  2.600236e+01    1.479418e+00
  2.604481e+01    1.476826e+00
  2.608726e+01    1.471673e+00
  2.612972e+01    1.469367e+00
  2.617217e+01    1.465077e+00
  2.621462e+01    1.463945e+00
  2.625707e+01    1.463076e+00
  2.629953e+01    1.459183e+00
  2.634198e+01    1.467482e+00
  2.638443e+01    1.478959e+00
  2.642688e+01    1.486876e+00
  2.646934e+01    1.491479e+00
  2.651179e+01    1.495120e+00
  2.655424e+01    1.498033e+00
  2.659669e+01    1.499299e+00
  2.663915e+01    1.499251e+00
  2.668160e+01    1.505210e+00
  2.672405e+01    1.504872e+00
  2.676651e+01    1.509740e+00
  2.680896e+01    1.510628e+00
  2.685141e+01    1.506763e+00
  2.689386e+01    1.505562e+00
  2.693632e+01    1.505543e+00
  2.697877e+01    1.506093e+00
  2.702122e+01    1.503529e+00
  2.706367e+01    1.500701e+00
  2.710613e+01    1.503357e+00
  2.714858e+01    1.499410e+00
  2.719103e+01    1.498168e+00
  2.723348e+01    1.493842e+00
  2.727594e+01    1.493070e+00
  2.731839e+01    1.492157e+00
  2.736084e+01    1.488247e+00
  2.740329e+01    1.489563e+00
  2.744575e+01    1.487752e+00
  2.748820e+01    1.485551e+00
  2.753065e+01    1.481636e+00
  2.757311e+01    1.483011e+00
  2.761556e+01    1.480075e+00
  2.765801e+01    1.480722e+00
  2.770046e+01    1.478520e+00
  2.774292e+01    1.478619e+00
  2.778537e+01    1.476440e+00
  2.782782e+01    1.478279e+00
  2.787027e+01    1.475377e+00
  2.791273e+01    1.474286e+00
  2.795518e+01    1.472279e+00
  2.799763e+01    1.467349e+00
  2.804008e+01    1.461088e+00
  2.808254e+01    1.458137e+00
  2.812499e+01    1.458162e+00
  2.816744e+01    1.449332e+00
  2.820989e+01    1.445612e+00
  2.825235e+01    1.441616e+00
  2.829480e+01    1.441469e+00
  2.833725e+01    1.437227e+00
  2.837971e+01    1.439195e+00
  2.842216e+01    1.434904e+00
  2.846461e+01    1.436237e+00
  2.850706e+01    1.433315e+00
  2.854952e+01    1.432698e+00
  2.859197e+01    1.430485e+00
  2.863442e+01    1.434036e+00
  2.867687e+01    1.432820e+00
  2.871933e+01    1.447302e+00
  2.876178e+01    1.447658e+00
  2.880423e+01    1.437759e+00
  2.884668e+01    1.422775e+00
  2.888914e+01    1.417696e+00
  2.893159e+01    1.412753e+00
  2.897404e+01    1.415117e+00
  2.901649e+01    1.410508e+00
  2.905895e+01    1.412566e+00
  2.910140e+01    1.405982e+00
  2.914385e+01    1.408211e+00
  2.918631e+01    1.402699e+00
  2.922876e+01    1.401966e+00
  2.927121e+01    1.397041e+00
  2.931366e+01    1.394069e+00
  2.935612e+01    1.392535e+00
  2.939857e+01    1.390075e+00
  2.944102e+01    1.389028e+00
  2.948347e+01    1.386083e+00
  2.952593e+01    1.385831e+00
  2.956838e+01    1.383440e+00
  2.961083e+01    1.384982e+00
  2.965328e+01    1.379956e+00
  2.969574e+01    1.382855e+00
  2.973819e+01    1.375340e+00
  2.978064e+01    1.382105e+00
  2.982309e+01    1.379305e+00
  2.986555e+01    1.382043e+00
  2.990800e+01    1.379676e+00
  2.995045e+01    1.380224e+00
  2.999290e+01    1.383233e+00
  3.003536e+01    1.382993e+00
  3.007781e+01    1.386402e+00
  3.012026e+01    1.382266e+00
  3.016272e+01    1.385302e+00
  3.020517e+01    1.385794e+00
  3.024762e+01    1.488850e+00
  3.029007e+01    1.413175e+00
  3.033253e+01    1.390388e+00
  3.037498e+01    1.391043e+00
  3.041743e+01    1.389028e+00
  3.045988e+01    1.392460e+00
  3.050234e+01    1.394921e+00
  3.054479e+01    1.395023e+00
  3.058724e+01    1.395515e+00
  3.062969e+01    1.397165e+00
  3.067215e+01    1.397708e+00
  3.071460e+01    1.399034e+00
  3.075705e+01    1.401851e+00
  3.079950e+01    1.402765e+00
  3.084196e+01    1.402875e+00
  3.088441e+01    1.403279e+00
  3.092686e+01    1.402442e+00
  3.096932e+01    1.406901e+00
  3.101177e+01    1.406181e+00
  3.105422e+01    1.406557e+00
  3.109667e+01    1.453885e+00
  3.113913e+01    1.402400e+00
  3.118158e+01    1.403802e+00
  3.122403e+01    1.406207e+00
  3.126648e+01    1.402151e+00
  3.130894e+01    1.403946e+00
  3.135139e+01    1.403599e+00
  3.139384e+01    1.402233e+00
  3.143629e+01    1.403453e+00
  3.147875e+01    1.398899e+00
  3.152120e+01    1.404004e+00
  3.156365e+01    1.403086e+00
  3.160610e+01    1.399741e+00
  3.164856e+01    1.401399e+00
  3.169101e+01    1.398430e+00
  3.173346e+01    1.399161e+00
  3.177592e+01    1.398470e+00
  3.181837e+01    1.397068e+00
  3.186082e+01    1.399557e+00
  3.190327e+01    1.398852e+00
  3.194573e+01    1.396019e+00
  3.198818e+01    1.402680e+00
  3.203063e+01    1.397300e+00
  3.207308e+01    1.393304e+00
  3.211554e+01    1.394132e+00
  3.215799e+01    1.392541e+00
  3.220044e+01    1.389668e+00
  3.224289e+01    1.391417e+00
  3.228535e+01    1.388507e+00
  3.232780e+01    1.383679e+00
  3.237025e+01    1.385078e+00
  3.241270e+01    1.379452e+00
  3.245516e+01    1.374193e+00
  3.249761e+01    1.375808e+00
  3.254006e+01    1.371043e+00
  3.258252e+01    1.363994e+00
  3.262497e+01    1.363963e+00
  3.266742e+01    1.359329e+00
  3.270987e+01    1.348804e+00
  3.275233e+01    1.349423e+00
  3.279478e+01    1.344841e+00
  3.283723e+01    1.335813e+00
  3.287968e+01    1.333073e+00
  3.292214e+01    1.328264e+00
  3.296459e+01    1.324288e+00
  3.300704e+01    1.317185e+00
  3.304949e+01    1.317090e+00
  3.309195e+01    1.311716e+00
  3.313440e+01    1.304765e+00
  3.317685e+01    1.303871e+00
  3.321930e+01    1.302027e+00
  3.326176e+01    1.302088e+00
  3.330421e+01    1.296974e+00
  3.334666e+01    1.290837e+00
  3.338911e+01    1.270783e+00
  3.343157e+01    1.254465e+00
  3.347402e+01    1.248362e+00
  3.351647e+01    1.240320e+00
  3.355893e+01    1.231403e+00
  3.360138e+01    1.222390e+00
  3.364383e+01    1.221820e+00
  3.368628e+01    1.213882e+00
  3.372874e+01    1.204883e+00
  3.377119e+01    1.201046e+00
  3.381364e+01    1.198830e+00
  3.385609e+01    1.190277e+00
  3.389855e+01    1.188972e+00
  3.394100e+01    1.184189e+00
  3.398345e+01    1.183632e+00
  3.402590e+01    1.180278e+00
  3.406836e+01    1.175174e+00
  3.411081e+01    1.173667e+00
  3.415326e+01    1.176222e+00
  3.419571e+01    1.167895e+00
  3.423817e+01    1.168053e+00
  3.428062e+01    1.164651e+00
  3.432307e+01    1.166899e+00
  3.436553e+01    1.163598e+00
  3.440798e+01    1.158383e+00
  3.445043e+01    1.157985e+00
  3.449288e+01    1.159741e+00
  3.453534e+01    1.161455e+00
  3.457779e+01    1.156098e+00
  3.462024e+01    1.152819e+00
  3.466269e+01    1.154038e+00
  3.470515e+01    1.151532e+00
  3.474760e+01    1.148821e+00
  3.479005e+01    1.143167e+00
  3.483250e+01    1.169193e+00
  3.487496e+01    1.136099e+00
  3.491741e+01    1.132053e+00
  3.495986e+01    1.132215e+00
  3.500231e+01    1.123919e+00
  3.504477e+01    1.120481e+00
  3.508722e+01    1.119204e+00
  3.512967e+01    1.113143e+00
  3.517213e+01    1.113570e+00
  3.521458e+01    1.108884e+00
  3.525703e+01    1.104478e+00
  3.529948e+01    1.099903e+00
  3.534194e+01    1.097013e+00
  3.538439e+01    1.093453e+00
  3.542684e+01    1.092292e+00
  3.546929e+01    1.085610e+00
  3.551175e+01    1.083617e+00
  3.555420e+01    1.078913e+00
  3.559665e+01    1.075656e+00
  3.563910e+01    1.070854e+00
  3.568156e+01    1.070675e+00
  3.572401e+01    1.064392e+00
  3.576646e+01    1.063181e+00
  3.580891e+01    1.057634e+00
  3.585137e+01    1.054415e+00
  3.589382e+01    1.050241e+00
  3.593627e+01    1.046897e+00
  3.597873e+01    1.041908e+00
  3.602118e+01    1.041602e+00
  3.606363e+01    1.036547e+00
  3.610608e+01    1.033323e+00
  3.614854e+01    1.029274e+00
  3.619099e+01    1.027401e+00
  3.623344e+01    1.024997e+00
  3.627589e+01    1.019937e+00
  3.631835e+01    1.017096e+00
  3.636080e+01    1.012566e+00
  3.640325e+01    1.011493e+00
  3.644570e+01    1.007931e+00
  3.648816e+01    1.003227e+00
  3.653061e+01    1.003208e+00
  3.657306e+01    9.963710e-01
  3.661551e+01    9.937195e-01
  3.665797e+01    9.886443e-01
  3.670042e+01    9.868440e-01
  3.674287e+01    9.845837e-01
  3.678532e+01    9.782077e-01
  3.682778e+01    9.770569e-01
  3.687023e+01    9.742348e-01
  3.691268e+01    9.712400e-01
  3.695514e+01    9.657159e-01
  3.699759e+01    9.639333e-01
  3.704004e+01    9.598628e-01
  3.708249e+01    9.559067e-01
  3.712495e+01    9.515271e-01
  3.716740e+01    9.510047e-01
  3.720985e+01    9.467558e-01
  3.725230e+01    9.449353e-01
  3.729476e+01    9.427561e-01
  3.733721e+01    9.418965e-01
  3.737966e+01    9.419437e-01
  3.742211e+01    9.418932e-01
  3.746457e+01    9.414660e-01
  3.750702e+01    9.423727e-01
  3.754947e+01    9.401703e-01
  3.759192e+01    9.428857e-01
  3.763438e+01    9.437180e-01
  3.767683e+01    9.432114e-01
  3.771928e+01    9.458063e-01
  3.776174e+01    9.470309e-01
  3.780419e+01    9.504642e-01
  3.784664e+01    9.515112e-01
  3.788909e+01    9.545741e-01
  3.793155e+01    9.561249e-01
  3.797400e+01    9.624788e-01
  3.801645e+01    9.621921e-01
  3.805890e+01    9.666155e-01
  3.810136e+01    9.713880e-01
  3.814381e+01    9.723084e-01
  3.818626e+01    9.775021e-01
  3.822871e+01    9.817803e-01
  3.827117e+01    9.844874e-01
  3.831362e+01    9.873189e-01
  3.835607e+01    9.930347e-01
  3.839852e+01    9.986935e-01
  3.844098e+01    1.000548e+00
  3.848343e+01    1.006477e+00
  3.852588e+01    1.011012e+00
  3.856834e+01    1.016592e+00
  3.861079e+01    1.022993e+00
  3.865324e+01    1.029116e+00
  3.869569e+01    1.035003e+00
  3.873815e+01    1.042826e+00
  3.878060e+01    1.048980e+00
  3.882305e+01    1.058662e+00
  3.886550e+01    1.064746e+00
  3.890796e+01    1.076827e+00
  3.895041e+01    1.080191e+00
  3.899286e+01    1.082421e+00
  3.903531e+01    1.081771e+00
  3.907777e+01    1.084646e+00
  3.912022e+01    1.085649e+00
  3.916267e+01    1.088144e+00
  3.920512e+01    1.089518e+00
  3.924758e+01    1.091369e+00
  3.929003e+01    1.089872e+00
  3.933248e+01    1.092873e+00
  3.937494e+01    1.092357e+00
  3.941739e+01    1.089717e+00
  3.945984e+01    1.089362e+00
  3.950229e+01    1.086835e+00
  3.954475e+01    1.083579e+00
  3.958720e+01    1.082205e+00
  3.962965e+01    1.081683e+00
  3.967210e+01    1.079528e+00
  3.971456e+01    1.078550e+00
  3.975701e+01    1.075435e+00
  3.979946e+01    1.072820e+00
  3.984191e+01    1.072374e+00
  3.988437e+01    1.070545e+00
  3.992682e+01    1.069432e+00
  3.996927e+01    1.069427e+00
  4.001172e+01    1.066592e+00
  4.005418e+01    1.062811e+00
  4.009663e+01    1.061174e+00
  4.013908e+01    1.061327e+00
  4.018153e+01    1.060449e+00
  4.022399e+01    1.057084e+00
  4.026644e+01    1.053380e+00
  4.030889e+01    1.051330e+00
  4.035135e+01    1.050486e+00
  4.039380e+01    1.046777e+00
  4.043625e+01    1.047095e+00
  4.047870e+01    1.044173e+00
  4.052116e+01    1.044739e+00
  4.056361e+01    1.044636e+00
  4.060606e+01    1.040979e+00
  4.064851e+01    1.037125e+00
  4.069097e+01    1.039741e+00
  4.073342e+01    1.037445e+00
  4.077587e+01    1.033918e+00
  4.081832e+01    1.032250e+00
  4.086078e+01    1.032537e+00
  4.090323e+01    1.030917e+00
  4.094568e+01    1.029950e+00
  4.098813e+01    1.028902e+00
  4.103059e+01    1.029908e+00
  4.107304e+01    1.026049e+00
  4.111549e+01    1.024414e+00
  4.115795e+01    1.020208e+00
  4.120040e+01    1.023401e+00
  4.124285e+01    1.018768e+00
  4.128530e+01    1.017974e+00
  4.132776e+01    1.018368e+00
  4.137021e+01    1.015507e+00
  4.141266e+01    1.014379e+00
  4.145511e+01    1.013527e+00
  4.149757e+01    1.010529e+00
  4.154002e+01    1.009921e+00
  4.158247e+01    1.007115e+00
  4.162492e+01    1.007009e+00
  4.166738e+01    1.005319e+00
  4.170983e+01    1.004095e+00
  4.175228e+01    1.004356e+00
  4.179473e+01    1.002049e+00
  4.183719e+01    1.003582e+00
  4.187964e+01    9.968743e-01
  4.192209e+01    9.977311e-01
  4.196455e+01    9.943805e-01
  4.200700e+01    9.980317e-01
  4.204945e+01    9.942448e-01
  4.209190e+01    9.937652e-01
  4.213436e+01    9.826847e-01
  4.217681e+01    9.551070e-01
  4.221926e+01    9.092852e-01
  4.226171e+01    8.610392e-01
  4.230417e+01    7.793869e-01
  4.234662e+01    7.092397e-01
  4.238907e+01    6.397517e-01
  4.243152e+01    5.860839e-01
  4.247398e+01    5.619860e-01
  4.251643e+01    5.561351e-01
  4.255888e+01    5.603098e-01
  4.260133e+01    5.234829e-01
  4.264379e+01    4.456838e-01
