# == pyFAI calibration ==
# Distance Sample to Detector: 0.12919864315695237 m
# PONI: 9.601e-02, 9.529e-02 m
# Rotations: 0.006465 0.000205 0.000000 rad
# 
# == Fit2d calibration ==
# Distance Sample-beamCenter: 129.201 mm
# Center: x=1259.455, y=1280.428 pix
# Tilt: 0.371 deg  TiltPlanRot: 178.181 deg
# 
# Detector Eiger 4M	 PixelSize= 7.500e-05, 7.500e-05 m
#    Detector has a mask: True 
#    Detector has a dark current: False 
#    detector has a flat field: False 
# 
# Wavelength: 9.537246033323096e-11 m
# Mask applied: from detector
# Dark current applied: False
# Flat field applied: False
# Polarization factor: None
# Normalization factor: 1.0
# --> /mnt/multipath-shares/tmp_14_days/es1097_ux/zp1_yp0_3073.dat
#        q_A^-1             I 
  1.163185e-01    5.317239e+01
  1.213573e-01    5.223999e+01
  1.263961e-01    5.351180e+01
  1.314350e-01    5.509018e+01
  1.364738e-01    5.452027e+01
  1.415127e-01    5.534067e+01
  1.465515e-01    5.546160e+01
  1.515904e-01    5.447211e+01
  1.566292e-01    5.505183e+01
  1.616681e-01    5.409351e+01
  1.667069e-01    5.440870e+01
  1.717458e-01    5.456777e+01
  1.767846e-01    5.448235e+01
  1.818234e-01    5.470181e+01
  1.868623e-01    5.522858e+01
  1.919011e-01    5.430674e+01
  1.969400e-01    5.519149e+01
  2.019788e-01    5.551652e+01
  2.070177e-01    5.592315e+01
  2.120565e-01    5.529925e+01
  2.170954e-01    5.645412e+01
  2.221342e-01    5.665805e+01
  2.271730e-01    5.639950e+01
  2.322119e-01    5.581312e+01
  2.372507e-01    5.671572e+01
  2.422896e-01    5.793175e+01
  2.473284e-01    5.689175e+01
  2.523673e-01    5.741621e+01
  2.574061e-01    5.694310e+01
  2.624450e-01    5.788869e+01
  2.674838e-01    5.734826e+01
  2.725227e-01    5.771031e+01
  2.775615e-01    5.712306e+01
  2.826003e-01    5.786817e+01
  2.876392e-01    5.814068e+01
  2.926780e-01    5.792603e+01
  2.977169e-01    5.757829e+01
  3.027557e-01    5.822875e+01
  3.077946e-01    5.837121e+01
  3.128334e-01    5.811958e+01
  3.178723e-01    5.811515e+01
  3.229111e-01    5.834253e+01
  3.279500e-01    5.834523e+01
  3.329888e-01    5.890493e+01
  3.380276e-01    5.879389e+01
  3.430665e-01    5.894020e+01
  3.481053e-01    5.905667e+01
  3.531442e-01    5.895319e+01
  3.581830e-01    5.887678e+01
  3.632219e-01    5.867298e+01
  3.682607e-01    5.855155e+01
  3.732996e-01    5.888162e+01
  3.783384e-01    5.929982e+01
  3.833772e-01    5.943840e+01
  3.884161e-01    5.903148e+01
  3.934549e-01    5.877005e+01
  3.984938e-01    5.900687e+01
  4.035326e-01    5.929099e+01
  4.085715e-01    5.892927e+01
  4.136103e-01    5.927064e+01
  4.186492e-01    5.928777e+01
  4.236880e-01    5.865768e+01
  4.287269e-01    5.914496e+01
  4.337657e-01    5.912439e+01
  4.388045e-01    5.914347e+01
  4.438434e-01    5.915870e+01
  4.488822e-01    5.947552e+01
  4.539211e-01    5.908608e+01
  4.589599e-01    5.951004e+01
  4.639988e-01    5.949123e+01
  4.690376e-01    5.909120e+01
  4.740765e-01    5.931285e+01
  4.791153e-01    5.915051e+01
  4.841541e-01    5.937905e+01
  4.891930e-01    5.918972e+01
  4.942318e-01    5.924149e+01
  4.992707e-01    5.926250e+01
  5.043095e-01    5.954286e+01
  5.093484e-01    5.949160e+01
  5.143872e-01    5.933397e+01
  5.194261e-01    5.952238e+01
  5.244649e-01    5.941981e+01
  5.295038e-01    5.910629e+01
  5.345426e-01    5.906842e+01
  5.395814e-01    5.887451e+01
  5.446203e-01    5.942048e+01
  5.496591e-01    5.906610e+01
  5.546980e-01    5.931539e+01
  5.597368e-01    5.966134e+01
  5.647757e-01    5.887130e+01
  5.698145e-01    5.926107e+01
  5.748534e-01    5.936647e+01
  5.798922e-01    5.918603e+01
  5.849311e-01    5.941583e+01
  5.899699e-01    5.885683e+01
  5.950087e-01    5.885775e+01
  6.000476e-01    5.892972e+01
  6.050864e-01    5.925533e+01
  6.101253e-01    5.896539e+01
  6.151641e-01    5.891004e+01
  6.202030e-01    5.887058e+01
  6.252418e-01    5.908181e+01
  6.302807e-01    5.889668e+01
  6.353195e-01    5.900299e+01
  6.403583e-01    5.882620e+01
  6.453972e-01    5.908644e+01
  6.504360e-01    5.882705e+01
  6.554749e-01    5.840524e+01
  6.605137e-01    5.914741e+01
  6.655526e-01    5.912696e+01
  6.705914e-01    5.862128e+01
  6.756303e-01    5.883786e+01
  6.806691e-01    5.863646e+01
  6.857080e-01    5.862292e+01
  6.907468e-01    5.848048e+01
  6.957856e-01    5.855690e+01
  7.008245e-01    5.859279e+01
  7.058633e-01    5.899370e+01
  7.109022e-01    5.845812e+01
  7.159410e-01    5.834072e+01
  7.209799e-01    5.843427e+01
  7.260187e-01    5.856726e+01
  7.310576e-01    5.828112e+01
  7.360964e-01    5.841872e+01
  7.411353e-01    5.881787e+01
  7.461741e-01    5.876068e+01
  7.512129e-01    5.836164e+01
  7.562518e-01    5.817028e+01
  7.612906e-01    5.834858e+01
  7.663295e-01    5.835824e+01
  7.713683e-01    5.829541e+01
  7.764072e-01    5.798703e+01
  7.814460e-01    5.824317e+01
  7.864849e-01    5.832619e+01
  7.915237e-01    5.820604e+01
  7.965625e-01    5.822390e+01
  8.016014e-01    5.821021e+01
  8.066402e-01    5.836194e+01
  8.116791e-01    5.821701e+01
  8.167179e-01    5.846051e+01
  8.217568e-01    5.884309e+01
  8.267956e-01    5.836776e+01
  8.318345e-01    5.842977e+01
  8.368733e-01    5.825470e+01
  8.419122e-01    5.827679e+01
  8.469510e-01    5.805620e+01
  8.519898e-01    5.777477e+01
  8.570287e-01    5.875510e+01
  8.620675e-01    5.856956e+01
  8.671064e-01    5.778289e+01
  8.721452e-01    5.857655e+01
  8.771841e-01    5.885106e+01
  8.822229e-01    5.828086e+01
  8.872618e-01    5.843200e+01
  8.923006e-01    5.830567e+01
  8.973395e-01    5.823011e+01
  9.023783e-01    5.826637e+01
  9.074171e-01    5.837379e+01
  9.124560e-01    5.867494e+01
  9.174948e-01    5.871024e+01
  9.225337e-01    5.854422e+01
  9.275725e-01    5.847486e+01
  9.326114e-01    5.872965e+01
  9.376502e-01    5.833855e+01
  9.426891e-01    5.880921e+01
  9.477279e-01    5.866151e+01
  9.527667e-01    5.862079e+01
  9.578056e-01    5.901852e+01
  9.628444e-01    5.866692e+01
  9.678833e-01    5.834877e+01
  9.729221e-01    5.865165e+01
  9.779610e-01    5.887414e+01
  9.829998e-01    5.858981e+01
  9.880387e-01    5.869045e+01
  9.930775e-01    5.880454e+01
  9.981164e-01    5.869254e+01
  1.003155e+00    5.866501e+01
  1.008194e+00    5.855613e+01
  1.013233e+00    5.880166e+01
  1.018272e+00    5.907360e+01
  1.023311e+00    5.866603e+01
  1.028349e+00    5.900812e+01
  1.033388e+00    5.877282e+01
  1.038427e+00    5.887868e+01
  1.043466e+00    5.921420e+01
  1.048505e+00    5.892923e+01
  1.053544e+00    5.902238e+01
  1.058582e+00    5.896563e+01
  1.063621e+00    5.862494e+01
  1.068660e+00    5.887441e+01
  1.073699e+00    5.871621e+01
  1.078738e+00    5.891729e+01
  1.083777e+00    5.889793e+01
  1.088816e+00    5.866718e+01
  1.093854e+00    5.857113e+01
  1.098893e+00    5.852347e+01
  1.103932e+00    5.937820e+01
  1.108971e+00    5.853461e+01
  1.114010e+00    5.863047e+01
  1.119049e+00    5.878044e+01
  1.124087e+00    5.870489e+01
  1.129126e+00    5.874928e+01
  1.134165e+00    5.848633e+01
  1.139204e+00    5.867163e+01
  1.144243e+00    5.857210e+01
  1.149282e+00    5.882570e+01
  1.154321e+00    5.834825e+01
  1.159359e+00    5.853906e+01
  1.164398e+00    5.830044e+01
  1.169437e+00    5.841156e+01
  1.174476e+00    5.806289e+01
  1.179515e+00    5.824451e+01
  1.184554e+00    5.814530e+01
  1.189592e+00    5.825544e+01
  1.194631e+00    5.816380e+01
  1.199670e+00    5.811092e+01
  1.204709e+00    6.065752e+01
  1.209748e+00    5.802195e+01
  1.214787e+00    5.763040e+01
  1.219826e+00    5.775207e+01
  1.224864e+00    5.770357e+01
  1.229903e+00    5.774001e+01
  1.234942e+00    5.785631e+01
  1.239981e+00    5.718465e+01
  1.245020e+00    5.770563e+01
  1.250059e+00    5.762931e+01
  1.255097e+00    5.737930e+01
  1.260136e+00    5.794261e+01
  1.265175e+00    5.753938e+01
  1.270214e+00    5.773507e+01
  1.275253e+00    5.750924e+01
  1.280292e+00    5.737401e+01
  1.285331e+00    5.735565e+01
  1.290369e+00    5.701042e+01
  1.295408e+00    5.708675e+01
  1.300447e+00    5.702169e+01
  1.305486e+00    5.685621e+01
  1.310525e+00    5.699749e+01
  1.315564e+00    5.673204e+01
  1.320602e+00    5.671015e+01
  1.325641e+00    5.673037e+01
  1.330680e+00    5.679819e+01
  1.335719e+00    5.689432e+01
  1.340758e+00    5.653854e+01
  1.345797e+00    5.655656e+01
  1.350836e+00    5.674699e+01
  1.355874e+00    5.637352e+01
  1.360913e+00    5.934797e+01
  1.365952e+00    5.643476e+01
  1.370991e+00    5.631917e+01
  1.376030e+00    5.638676e+01
  1.381069e+00    5.609863e+01
  1.386107e+00    5.639357e+01
  1.391146e+00    5.613385e+01
  1.396185e+00    5.608252e+01
  1.401224e+00    5.649587e+01
  1.406263e+00    5.637199e+01
  1.411302e+00    5.635201e+01
  1.416341e+00    5.631154e+01
  1.421379e+00    5.652092e+01
  1.426418e+00    5.667084e+01
  1.431457e+00    5.699441e+01
  1.436496e+00    5.707962e+01
  1.441535e+00    5.727981e+01
  1.446574e+00    5.790171e+01
  1.451612e+00    5.877524e+01
  1.456651e+00    6.021340e+01
  1.461690e+00    6.208796e+01
  1.466729e+00    6.546490e+01
  1.471768e+00    6.992151e+01
  1.476807e+00    6.476742e+01
  1.481845e+00    6.969018e+01
  1.486884e+00    7.204793e+01
  1.491923e+00    6.503243e+01
  1.496962e+00    6.182912e+01
  1.502001e+00    5.918657e+01
  1.507040e+00    5.814975e+01
  1.512079e+00    5.733779e+01
  1.517117e+00    5.674405e+01
  1.522156e+00    5.605752e+01
  1.527195e+00    5.588345e+01
  1.532234e+00    5.561293e+01
  1.537273e+00    5.505867e+01
  1.542312e+00    5.508669e+01
  1.547350e+00    5.504236e+01
  1.552389e+00    5.475851e+01
  1.557428e+00    5.496792e+01
  1.562467e+00    5.482821e+01
  1.567506e+00    5.459144e+01
  1.572545e+00    5.445538e+01
  1.577584e+00    5.450901e+01
  1.582622e+00    5.457819e+01
  1.587661e+00    5.437427e+01
  1.592700e+00    5.457061e+01
  1.597739e+00    5.446370e+01
  1.602778e+00    5.457127e+01
  1.607817e+00    5.449059e+01
  1.612855e+00    5.458827e+01
  1.617894e+00    5.475211e+01
  1.622933e+00    5.488230e+01
  1.627972e+00    5.454506e+01
  1.633011e+00    5.467875e+01
  1.638050e+00    5.488310e+01
  1.643089e+00    5.522651e+01
  1.648127e+00    5.519989e+01
  1.653166e+00    5.549065e+01
  1.658205e+00    5.537234e+01
  1.663244e+00    5.548529e+01
  1.668283e+00    5.562625e+01
  1.673322e+00    5.581869e+01
  1.678360e+00    5.599520e+01
  1.683399e+00    5.623148e+01
  1.688438e+00    5.633620e+01
  1.693477e+00    5.657062e+01
  1.698516e+00    5.666172e+01
  1.703555e+00    5.666574e+01
  1.708594e+00    5.704355e+01
  1.713632e+00    5.742492e+01
  1.718671e+00    5.747726e+01
  1.723710e+00    5.755447e+01
  1.728749e+00    5.773108e+01
  1.733788e+00    5.810936e+01
  1.738827e+00    5.816748e+01
  1.743865e+00    5.833031e+01
  1.748904e+00    5.866213e+01
  1.753943e+00    5.925253e+01
  1.758982e+00    5.903869e+01
  1.764021e+00    5.938221e+01
  1.769060e+00    5.937432e+01
  1.774099e+00    5.983417e+01
  1.779137e+00    6.017745e+01
  1.784176e+00    6.015668e+01
  1.789215e+00    6.034692e+01
  1.794254e+00    6.084744e+01
  1.799293e+00    6.091607e+01
  1.804332e+00    6.120541e+01
  1.809370e+00    6.161963e+01
  1.814409e+00    6.148337e+01
  1.819448e+00    6.174281e+01
  1.824487e+00    6.183327e+01
  1.829526e+00    6.209809e+01
  1.834565e+00    6.207484e+01
  1.839603e+00    6.207399e+01
  1.844642e+00    6.218340e+01
  1.849681e+00    6.247721e+01
  1.854720e+00    6.227720e+01
  1.859759e+00    6.253024e+01
  1.864798e+00    6.293719e+01
  1.869837e+00    6.279592e+01
  1.874875e+00    6.268379e+01
  1.879914e+00    6.264083e+01
  1.884953e+00    6.240226e+01
  1.889992e+00    6.266348e+01
  1.895031e+00    6.260133e+01
  1.900070e+00    6.285545e+01
  1.905108e+00    6.254205e+01
  1.910147e+00    6.294738e+01
  1.915186e+00    6.263768e+01
  1.920225e+00    6.282561e+01
  1.925264e+00    6.283426e+01
  1.930303e+00    6.259163e+01
  1.935342e+00    6.289410e+01
  1.940380e+00    6.255732e+01
  1.945419e+00    6.255353e+01
  1.950458e+00    6.247806e+01
  1.955497e+00    6.248213e+01
  1.960536e+00    6.204765e+01
  1.965575e+00    6.196803e+01
  1.970613e+00    6.237956e+01
  1.975652e+00    6.208671e+01
  1.980691e+00    6.161240e+01
  1.985730e+00    6.197650e+01
  1.990769e+00    6.165399e+01
  1.995808e+00    6.146074e+01
  2.000847e+00    6.131726e+01
  2.005885e+00    6.129678e+01
  2.010924e+00    6.124484e+01
  2.015963e+00    6.097192e+01
  2.021002e+00    6.090262e+01
  2.026041e+00    6.065669e+01
  2.031080e+00    6.052786e+01
  2.036118e+00    6.014843e+01
  2.041157e+00    6.029551e+01
  2.046196e+00    6.026069e+01
  2.051235e+00    5.998471e+01
  2.056274e+00    5.985567e+01
  2.061313e+00    5.991609e+01
  2.066352e+00    5.961304e+01
  2.071390e+00    5.933276e+01
  2.076429e+00    5.938145e+01
  2.081468e+00    5.931816e+01
  2.086507e+00    5.901938e+01
  2.091546e+00    5.906359e+01
  2.096585e+00    5.888020e+01
  2.101623e+00    5.858806e+01
  2.106662e+00    5.872118e+01
  2.111701e+00    5.847554e+01
  2.116740e+00    5.827160e+01
  2.121779e+00    5.817217e+01
  2.126818e+00    5.818906e+01
  2.131857e+00    5.810357e+01
  2.136895e+00    5.828053e+01
  2.141934e+00    5.783921e+01
  2.146973e+00    5.787149e+01
  2.152012e+00    5.792733e+01
  2.157051e+00    5.780080e+01
  2.162090e+00    5.765992e+01
  2.167128e+00    5.748724e+01
  2.172167e+00    5.731677e+01
  2.177206e+00    5.745110e+01
  2.182245e+00    5.727507e+01
  2.187284e+00    5.724430e+01
  2.192323e+00    5.717439e+01
  2.197361e+00    5.725001e+01
  2.202400e+00    5.692184e+01
  2.207439e+00    5.696766e+01
  2.212478e+00    5.682375e+01
  2.217517e+00    5.689301e+01
  2.222556e+00    5.686356e+01
  2.227595e+00    5.697455e+01
  2.232633e+00    5.653641e+01
  2.237672e+00    5.672717e+01
  2.242711e+00    5.666167e+01
  2.247750e+00    5.650191e+01
  2.252789e+00    5.671434e+01
  2.257828e+00    5.632033e+01
  2.262866e+00    5.657661e+01
  2.267905e+00    5.637962e+01
  2.272944e+00    5.620675e+01
  2.277983e+00    5.624732e+01
  2.283022e+00    5.615764e+01
  2.288061e+00    5.611245e+01
  2.293100e+00    5.616116e+01
  2.298138e+00    5.612457e+01
  2.303177e+00    5.626653e+01
  2.308216e+00    5.577309e+01
  2.313255e+00    5.599512e+01
  2.318294e+00    5.586107e+01
  2.323333e+00    5.581495e+01
  2.328371e+00    5.554485e+01
  2.333410e+00    5.583079e+01
  2.338449e+00    5.570336e+01
  2.343488e+00    5.545533e+01
  2.348527e+00    5.553373e+01
  2.353566e+00    5.553146e+01
  2.358605e+00    5.573687e+01
  2.363643e+00    5.514284e+01
  2.368682e+00    5.541722e+01
  2.373721e+00    5.533984e+01
  2.378760e+00    5.514062e+01
  2.383799e+00    5.552718e+01
  2.388838e+00    5.540242e+01
  2.393876e+00    5.540039e+01
  2.398915e+00    5.516242e+01
  2.403954e+00    5.523901e+01
  2.408993e+00    5.515916e+01
  2.414032e+00    5.522832e+01
  2.419071e+00    5.500319e+01
  2.424110e+00    5.504552e+01
  2.429148e+00    5.497800e+01
  2.434187e+00    5.496311e+01
  2.439226e+00    5.501711e+01
  2.444265e+00    5.475320e+01
  2.449304e+00    5.494950e+01
  2.454343e+00    5.500451e+01
  2.459381e+00    5.492092e+01
  2.464420e+00    5.508888e+01
  2.469459e+00    5.483390e+01
  2.474498e+00    5.472433e+01
  2.479537e+00    5.478837e+01
  2.484576e+00    5.487389e+01
  2.489615e+00    5.474258e+01
  2.494653e+00    5.463597e+01
  2.499692e+00    5.458783e+01
  2.504731e+00    5.489791e+01
  2.509770e+00    5.459594e+01
  2.514809e+00    5.476759e+01
  2.519848e+00    5.478846e+01
  2.524886e+00    5.486074e+01
  2.529925e+00    5.482645e+01
  2.534964e+00    5.510876e+01
  2.540003e+00    5.495957e+01
  2.545042e+00    5.492480e+01
  2.550081e+00    5.494968e+01
  2.555120e+00    5.490530e+01
  2.560158e+00    5.499052e+01
  2.565197e+00    5.469324e+01
  2.570236e+00    5.499409e+01
  2.575275e+00    5.507971e+01
  2.580314e+00    5.520167e+01
  2.585353e+00    5.489985e+01
  2.590391e+00    5.508991e+01
  2.595430e+00    5.500087e+01
  2.600469e+00    5.508161e+01
  2.605508e+00    5.523131e+01
  2.610547e+00    5.531229e+01
  2.615586e+00    5.532177e+01
  2.620624e+00    5.528219e+01
  2.625663e+00    5.554005e+01
  2.630702e+00    5.551791e+01
  2.635741e+00    5.571912e+01
  2.640780e+00    5.586445e+01
  2.645819e+00    5.582125e+01
  2.650858e+00    5.603490e+01
  2.655896e+00    5.591568e+01
  2.660935e+00    5.604350e+01
  2.665974e+00    5.618220e+01
  2.671013e+00    5.642963e+01
  2.676052e+00    5.634309e+01
  2.681091e+00    5.643415e+01
  2.686129e+00    5.675078e+01
  2.691168e+00    5.653959e+01
  2.696207e+00    5.665739e+01
  2.701246e+00    5.663461e+01
  2.706285e+00    5.680252e+01
  2.711324e+00    5.683701e+01
  2.716363e+00    5.720378e+01
  2.721401e+00    5.726363e+01
  2.726440e+00    5.724578e+01
  2.731479e+00    5.722060e+01
  2.736518e+00    5.757282e+01
  2.741557e+00    5.747833e+01
  2.746596e+00    5.772618e+01
  2.751634e+00    5.766846e+01
  2.756673e+00    5.759260e+01
  2.761712e+00    5.758482e+01
  2.766751e+00    5.775665e+01
  2.771790e+00    5.764096e+01
  2.776829e+00    5.785494e+01
  2.781868e+00    5.787511e+01
  2.786906e+00    5.789698e+01
  2.791945e+00    5.803888e+01
  2.796984e+00    5.797148e+01
  2.802023e+00    5.794313e+01
  2.807062e+00    5.804565e+01
  2.812101e+00    5.822753e+01
  2.817139e+00    5.798489e+01
  2.822178e+00    5.822881e+01
  2.827217e+00    5.829236e+01
  2.832256e+00    5.825483e+01
  2.837295e+00    5.824698e+01
  2.842334e+00    5.830405e+01
  2.847373e+00    5.802143e+01
  2.852411e+00    5.816228e+01
  2.857450e+00    5.809899e+01
  2.862489e+00    5.830785e+01
  2.867528e+00    5.813406e+01
  2.872567e+00    5.811982e+01
  2.877606e+00    5.792076e+01
  2.882644e+00    5.794118e+01
  2.887683e+00    5.789910e+01
  2.892722e+00    5.810291e+01
  2.897761e+00    5.793809e+01
  2.902800e+00    5.788310e+01
  2.907839e+00    5.794480e+01
  2.912878e+00    5.797449e+01
  2.917916e+00    5.778644e+01
  2.922955e+00    5.778181e+01
  2.927994e+00    5.779288e+01
  2.933033e+00    5.783249e+01
  2.938072e+00    5.783619e+01
  2.943111e+00    5.746785e+01
  2.948149e+00    5.758963e+01
  2.953188e+00    5.727094e+01
  2.958227e+00    5.732444e+01
  2.963266e+00    5.734090e+01
  2.968305e+00    5.735388e+01
  2.973344e+00    5.750502e+01
  2.978382e+00    5.729773e+01
  2.983421e+00    5.713684e+01
  2.988460e+00    5.705268e+01
  2.993499e+00    5.694268e+01
  2.998538e+00    5.690049e+01
  3.003577e+00    5.710357e+01
  3.008616e+00    5.693730e+01
  3.013654e+00    5.694301e+01
  3.018693e+00    5.718361e+01
  3.023732e+00    5.699880e+01
  3.028771e+00    5.687975e+01
  3.033810e+00    5.691980e+01
  3.038849e+00    5.680569e+01
  3.043887e+00    5.681590e+01
  3.048926e+00    5.679031e+01
  3.053965e+00    5.698741e+01
  3.059004e+00    5.690244e+01
  3.064043e+00    5.685871e+01
  3.069082e+00    5.703603e+01
  3.074121e+00    5.706542e+01
  3.079159e+00    5.688543e+01
  3.084198e+00    5.681394e+01
  3.089237e+00    5.700974e+01
  3.094276e+00    5.688248e+01
  3.099315e+00    5.694654e+01
  3.104354e+00    5.696679e+01
  3.109392e+00    5.700432e+01
  3.114431e+00    5.682983e+01
  3.119470e+00    5.657726e+01
  3.124509e+00    5.679953e+01
  3.129548e+00    5.702864e+01
  3.134587e+00    5.702859e+01
  3.139626e+00    5.710124e+01
  3.144664e+00    5.738747e+01
  3.149703e+00    5.734596e+01
  3.154742e+00    5.776123e+01
  3.159781e+00    5.775085e+01
  3.164820e+00    5.809398e+01
  3.169859e+00    5.832712e+01
  3.174897e+00    5.854797e+01
  3.179936e+00    5.859364e+01
  3.184975e+00    5.891376e+01
  3.190014e+00    6.426524e+01
  3.195053e+00    5.905222e+01
  3.200092e+00    5.891975e+01
  3.205131e+00    5.869374e+01
  3.210169e+00    5.853949e+01
  3.215208e+00    5.829685e+01
  3.220247e+00    5.796522e+01
  3.225286e+00    5.807818e+01
  3.230325e+00    5.759866e+01
  3.235364e+00    5.773218e+01
  3.240402e+00    5.737517e+01
  3.245441e+00    5.722886e+01
  3.250480e+00    5.698964e+01
  3.255519e+00    5.722005e+01
  3.260558e+00    5.699942e+01
  3.265597e+00    5.686382e+01
  3.270636e+00    5.690164e+01
  3.275674e+00    5.676797e+01
  3.280713e+00    5.861142e+01
  3.285752e+00    5.666590e+01
  3.290791e+00    5.649698e+01
  3.295830e+00    5.673571e+01
  3.300869e+00    5.680733e+01
  3.305907e+00    5.666373e+01
  3.310946e+00    5.672763e+01
  3.315985e+00    5.658247e+01
  3.321024e+00    5.658023e+01
  3.326063e+00    5.669672e+01
  3.331102e+00    5.670106e+01
  3.336141e+00    5.662940e+01
  3.341179e+00    5.682598e+01
  3.346218e+00    5.670815e+01
  3.351257e+00    5.664201e+01
  3.356296e+00    5.666164e+01
  3.361335e+00    5.672223e+01
  3.366374e+00    5.651954e+01
  3.371412e+00    5.655981e+01
  3.376451e+00    5.677742e+01
  3.381490e+00    5.666774e+01
  3.386529e+00    5.665940e+01
  3.391568e+00    5.670030e+01
  3.396607e+00    5.668670e+01
  3.401645e+00    5.681373e+01
  3.406684e+00    5.678529e+01
  3.411723e+00    5.665098e+01
  3.416762e+00    5.660138e+01
  3.421801e+00    5.678691e+01
  3.426840e+00    5.667820e+01
  3.431879e+00    5.677135e+01
  3.436917e+00    5.698245e+01
  3.441956e+00    5.740623e+01
  3.446995e+00    5.735922e+01
  3.452034e+00    5.710196e+01
  3.457073e+00    5.688961e+01
  3.462112e+00    5.688557e+01
  3.467150e+00    5.675661e+01
  3.472189e+00    5.680412e+01
  3.477228e+00    5.717216e+01
  3.482267e+00    5.695340e+01
  3.487306e+00    5.693721e+01
  3.492345e+00    5.684902e+01
  3.497384e+00    5.701352e+01
  3.502422e+00    5.701320e+01
  3.507461e+00    5.714802e+01
  3.512500e+00    5.736423e+01
  3.517539e+00    5.709010e+01
  3.522578e+00    5.718820e+01
  3.527617e+00    5.713879e+01
  3.532655e+00    5.721207e+01
  3.537694e+00    5.726110e+01
  3.542733e+00    5.737294e+01
  3.547772e+00    5.746261e+01
  3.552811e+00    5.739752e+01
  3.557850e+00    5.760450e+01
  3.562889e+00    5.738420e+01
  3.567927e+00    5.745840e+01
  3.572966e+00    5.756017e+01
  3.578005e+00    5.768025e+01
  3.583044e+00    5.767334e+01
  3.588083e+00    5.768271e+01
  3.593122e+00    5.788084e+01
  3.598160e+00    5.784769e+01
  3.603199e+00    5.803513e+01
  3.608238e+00    5.793222e+01
  3.613277e+00    5.783839e+01
  3.618316e+00    5.816819e+01
  3.623355e+00    5.795309e+01
  3.628394e+00    5.794133e+01
  3.633432e+00    5.810996e+01
  3.638471e+00    5.794039e+01
  3.643510e+00    5.821255e+01
  3.648549e+00    5.831987e+01
  3.653588e+00    5.829723e+01
  3.658627e+00    5.808687e+01
  3.663665e+00    5.845900e+01
  3.668704e+00    5.850017e+01
  3.673743e+00    5.834200e+01
  3.678782e+00    5.856928e+01
  3.683821e+00    5.854206e+01
  3.688860e+00    5.850454e+01
  3.693899e+00    5.885149e+01
  3.698937e+00    5.867393e+01
  3.703976e+00    5.859358e+01
  3.709015e+00    5.876476e+01
  3.714054e+00    5.893013e+01
  3.719093e+00    5.903841e+01
  3.724132e+00    5.882428e+01
  3.729170e+00    5.865820e+01
  3.734209e+00    5.900172e+01
  3.739248e+00    5.886974e+01
  3.744287e+00    5.912167e+01
  3.749326e+00    5.893574e+01
  3.754365e+00    5.924899e+01
  3.759403e+00    5.921945e+01
  3.764442e+00    5.948737e+01
  3.769481e+00    5.943793e+01
  3.774520e+00    5.950795e+01
  3.779559e+00    5.962888e+01
  3.784598e+00    5.958138e+01
  3.789637e+00    5.956693e+01
  3.794675e+00    5.976114e+01
  3.799714e+00    5.996136e+01
  3.804753e+00    6.006814e+01
  3.809792e+00    6.010293e+01
  3.814831e+00    6.031981e+01
  3.819870e+00    6.022732e+01
  3.824908e+00    6.026867e+01
  3.829947e+00    6.056845e+01
  3.834986e+00    6.022876e+01
  3.840025e+00    6.059913e+01
  3.845064e+00    6.050910e+01
  3.850103e+00    6.053810e+01
  3.855142e+00    6.049834e+01
  3.860180e+00    6.081898e+01
  3.865219e+00    6.087693e+01
  3.870258e+00    6.077434e+01
  3.875297e+00    6.091711e+01
  3.880336e+00    6.087144e+01
  3.885375e+00    6.113189e+01
  3.890413e+00    6.105447e+01
  3.895452e+00    6.098375e+01
  3.900491e+00    6.099283e+01
  3.905530e+00    6.106411e+01
  3.910569e+00    6.135640e+01
  3.915608e+00    6.127527e+01
  3.920647e+00    6.143491e+01
  3.925685e+00    6.163346e+01
  3.930724e+00    6.129986e+01
  3.935763e+00    6.148400e+01
  3.940802e+00    6.153262e+01
  3.945841e+00    6.142602e+01
  3.950880e+00    6.167029e+01
  3.955918e+00    6.146721e+01
  3.960957e+00    6.175039e+01
  3.965996e+00    6.156714e+01
  3.971035e+00    6.165502e+01
  3.976074e+00    6.177575e+01
  3.981113e+00    6.158219e+01
  3.986152e+00    6.193347e+01
  3.991190e+00    6.169236e+01
  3.996229e+00    6.213467e+01
  4.001268e+00    6.173401e+01
  4.006307e+00    6.169897e+01
  4.011346e+00    6.183817e+01
  4.016385e+00    6.214190e+01
  4.021423e+00    6.169868e+01
  4.026462e+00    6.203564e+01
  4.031501e+00    6.193023e+01
  4.036540e+00    6.205071e+01
  4.041579e+00    6.189567e+01
  4.046618e+00    6.190143e+01
  4.051657e+00    6.189493e+01
  4.056695e+00    6.219896e+01
  4.061734e+00    6.185203e+01
  4.066773e+00    6.195678e+01
  4.071812e+00    6.184776e+01
  4.076851e+00    6.219433e+01
  4.081890e+00    6.254524e+01
  4.086928e+00    6.282380e+01
  4.091967e+00    6.281932e+01
  4.097006e+00    6.341190e+01
  4.102045e+00    6.344637e+01
  4.107084e+00    6.356137e+01
  4.112123e+00    6.357081e+01
  4.117161e+00    6.359162e+01
  4.122200e+00    6.373046e+01
  4.127239e+00    6.377594e+01
  4.132278e+00    6.388778e+01
  4.137317e+00    6.424294e+01
  4.142356e+00    6.443124e+01
  4.147395e+00    6.406174e+01
  4.152433e+00    6.402346e+01
  4.157472e+00    6.404424e+01
  4.162511e+00    6.411234e+01
  4.167550e+00    6.411969e+01
  4.172589e+00    6.409703e+01
  4.177628e+00    6.429389e+01
  4.182666e+00    6.397818e+01
  4.187705e+00    6.410166e+01
  4.192744e+00    6.414865e+01
  4.197783e+00    6.422423e+01
  4.202822e+00    6.422403e+01
  4.207861e+00    6.427182e+01
  4.212900e+00    6.439023e+01
  4.217938e+00    6.425797e+01
  4.222977e+00    6.454040e+01
  4.228016e+00    6.445665e+01
  4.233055e+00    6.458799e+01
  4.238094e+00    6.478407e+01
  4.243133e+00    6.490184e+01
  4.248171e+00    6.475903e+01
  4.253210e+00    6.466174e+01
  4.258249e+00    6.528283e+01
  4.263288e+00    6.528896e+01
  4.268327e+00    6.529281e+01
  4.273366e+00    6.562354e+01
  4.278405e+00    6.522826e+01
  4.283443e+00    6.524876e+01
  4.288482e+00    6.592506e+01
  4.293521e+00    6.553056e+01
  4.298560e+00    6.639535e+01
  4.303599e+00    6.654022e+01
  4.308638e+00    6.616438e+01
  4.313676e+00    6.653128e+01
  4.318715e+00    6.635938e+01
  4.323754e+00    6.666448e+01
  4.328793e+00    6.693251e+01
  4.333832e+00    6.707374e+01
  4.338871e+00    6.758328e+01
  4.343910e+00    6.771537e+01
  4.348948e+00    6.756458e+01
  4.353987e+00    6.774263e+01
  4.359026e+00    6.812186e+01
  4.364065e+00    6.823420e+01
  4.369104e+00    6.840399e+01
  4.374143e+00    6.864763e+01
  4.379181e+00    6.900954e+01
  4.384220e+00    6.906499e+01
  4.389259e+00    6.947976e+01
  4.394298e+00    7.038499e+01
  4.399337e+00    7.019540e+01
  4.404376e+00    7.052831e+01
  4.409415e+00    7.089487e+01
  4.414453e+00    7.093446e+01
  4.419492e+00    7.188430e+01
  4.424531e+00    7.212665e+01
  4.429570e+00    7.253627e+01
  4.434609e+00    7.303077e+01
  4.439648e+00    7.389034e+01
  4.444686e+00    7.449693e+01
  4.449725e+00    7.475749e+01
  4.454764e+00    7.544796e+01
  4.459803e+00    7.621567e+01
  4.464842e+00    7.742368e+01
  4.469881e+00    7.738140e+01
  4.474920e+00    7.846518e+01
  4.479958e+00    7.895974e+01
  4.484997e+00    8.002351e+01
  4.490036e+00    8.092865e+01
  4.495075e+00    8.186425e+01
  4.500114e+00    8.267229e+01
  4.505153e+00    8.411056e+01
  4.510191e+00    8.438567e+01
  4.515230e+00    8.576974e+01
  4.520269e+00    8.582936e+01
  4.525308e+00    8.678338e+01
  4.530347e+00    8.866104e+01
  4.535386e+00    8.886860e+01
  4.540424e+00    9.052732e+01
  4.545463e+00    9.085899e+01
  4.550502e+00    9.202865e+01
  4.555541e+00    9.341586e+01
  4.560580e+00    9.458947e+01
  4.565619e+00    9.581617e+01
  4.570658e+00    9.733926e+01
  4.575696e+00    9.857492e+01
  4.580735e+00    9.966030e+01
  4.585774e+00    1.016514e+02
  4.590813e+00    1.028568e+02
  4.595852e+00    1.047498e+02
  4.600891e+00    1.050422e+02
  4.605929e+00    1.069699e+02
  4.610968e+00    1.084171e+02
  4.616007e+00    1.098695e+02
  4.621046e+00    1.116805e+02
  4.626085e+00    1.120540e+02
  4.631124e+00    1.146602e+02
  4.636163e+00    1.156812e+02
  4.641201e+00    1.179115e+02
  4.646240e+00    1.181600e+02
  4.651279e+00    1.205455e+02
  4.656318e+00    1.220295e+02
  4.661357e+00    1.231989e+02
  4.666396e+00    1.244194e+02
  4.671434e+00    1.247443e+02
  4.676473e+00    1.255974e+02
  4.681512e+00    1.270269e+02
  4.686551e+00    1.275442e+02
  4.691590e+00    1.270193e+02
  4.696629e+00    1.271415e+02
  4.701668e+00    1.268915e+02
  4.706706e+00    1.266728e+02
  4.711745e+00    1.274640e+02
  4.716784e+00    1.264471e+02
  4.721823e+00    1.262708e+02
  4.726862e+00    1.251293e+02
  4.731901e+00    1.243283e+02
  4.736939e+00    1.241746e+02
  4.741978e+00    1.243646e+02
  4.747017e+00    1.233023e+02
  4.752056e+00    1.242581e+02
  4.757095e+00    1.227484e+02
  4.762134e+00    1.217660e+02
  4.767173e+00    1.214696e+02
  4.772211e+00    1.219087e+02
  4.777250e+00    1.204341e+02
  4.782289e+00    1.200251e+02
  4.787328e+00    1.184951e+02
  4.792367e+00    1.178724e+02
  4.797406e+00    1.176346e+02
  4.802444e+00    1.161621e+02
  4.807483e+00    1.156031e+02
  4.812522e+00    1.151367e+02
  4.817561e+00    1.144547e+02
  4.822600e+00    1.144349e+02
  4.827639e+00    1.124035e+02
  4.832678e+00    1.108910e+02
  4.837716e+00    1.104743e+02
  4.842755e+00    1.102022e+02
  4.847794e+00    1.083375e+02
  4.852833e+00    1.079777e+02
  4.857872e+00    1.066813e+02
  4.862911e+00    1.052499e+02
  4.867949e+00    1.042636e+02
  4.872988e+00    1.027778e+02
  4.878027e+00    1.013758e+02
  4.883066e+00    1.015288e+02
  4.888105e+00    1.006499e+02
  4.893144e+00    1.000654e+02
  4.898182e+00    9.946445e+01
  4.903221e+00    9.782179e+01
  4.908260e+00    9.641795e+01
  4.913299e+00    9.633610e+01
  4.918338e+00    9.543498e+01
  4.923377e+00    9.467231e+01
  4.928416e+00    9.210480e+01
  4.933454e+00    9.173219e+01
  4.938493e+00    9.182919e+01
  4.943532e+00    8.997177e+01
  4.948571e+00    8.993656e+01
  4.953610e+00    8.783920e+01
  4.958649e+00    8.678320e+01
  4.963687e+00    8.600300e+01
  4.968726e+00    8.550842e+01
  4.973765e+00    8.523115e+01
  4.978804e+00    8.473321e+01
  4.983843e+00    8.338603e+01
  4.988882e+00    8.290626e+01
  4.993921e+00    8.176351e+01
  4.998959e+00    8.136526e+01
  5.003998e+00    8.020790e+01
  5.009037e+00    7.855453e+01
  5.014076e+00    7.918671e+01
  5.019115e+00    7.778954e+01
  5.024154e+00    7.685238e+01
  5.029192e+00    7.656242e+01
  5.034231e+00    7.683225e+01
  5.039270e+00    7.639281e+01
  5.044309e+00    7.498046e+01
  5.049348e+00    7.367730e+01
  5.054387e+00    7.302927e+01
  5.059426e+00    7.284098e+01
  5.064464e+00    7.295907e+01
  5.069503e+00    7.160677e+01
  5.074542e+00    7.089264e+01
  5.079581e+00    7.054528e+01
  5.084620e+00    7.158309e+01
  5.089659e+00    7.142185e+01
  5.094697e+00    6.836252e+01
  5.099736e+00    6.958521e+01
  5.104775e+00    7.088489e+01
  5.109814e+00    6.774536e+01
  5.114853e+00    6.616621e+01
  5.119892e+00    6.601389e+01
  5.124931e+00    6.839845e+01
  5.129969e+00    6.604173e+01
  5.135008e+00    6.520782e+01
  5.140047e+00    6.848200e+01
  5.145086e+00    6.419482e+01
  5.150125e+00    6.779467e+01
