# == pyFAI calibration ==
# Distance Sample to Detector: 0.12919864315695237 m
# PONI: 9.601e-02, 9.529e-02 m
# Rotations: 0.006465 0.000205 0.000000 rad
# 
# == Fit2d calibration ==
# Distance Sample-beamCenter: 129.201 mm
# Center: x=1259.455, y=1280.428 pix
# Tilt: 0.371 deg  TiltPlanRot: 178.181 deg
# 
# Detector Eiger 4M	 PixelSize= 7.500e-05, 7.500e-05 m
#    Detector has a mask: True 
#    Detector has a dark current: False 
#    detector has a flat field: False 
# 
# Wavelength: 9.537246033323096e-11 m
# Mask applied: from detector
# Dark current applied: False
# Flat field applied: False
# Polarization factor: None
# Normalization factor: 1.0
# --> /mnt/multipath-shares/tmp_14_days/es1097_ux/zp1_yp0_1609.dat
#        q_A^-1             I 
  1.163185e-01    5.506764e+01
  1.213573e-01    5.295134e+01
  1.263961e-01    5.722233e+01
  1.314350e-01    5.458996e+01
  1.364738e-01    5.695004e+01
  1.415127e-01    5.622898e+01
  1.465515e-01    5.868802e+01
  1.515904e-01    5.668081e+01
  1.566292e-01    5.611599e+01
  1.616681e-01    5.623016e+01
  1.667069e-01    5.593258e+01
  1.717458e-01    5.587804e+01
  1.767846e-01    5.588208e+01
  1.818234e-01    5.557978e+01
  1.868623e-01    5.579070e+01
  1.919011e-01    5.552276e+01
  1.969400e-01    5.645333e+01
  2.019788e-01    5.744386e+01
  2.070177e-01    5.627542e+01
  2.120565e-01    5.632091e+01
  2.170954e-01    5.664211e+01
  2.221342e-01    5.723913e+01
  2.271730e-01    5.718139e+01
  2.322119e-01    5.855966e+01
  2.372507e-01    5.717614e+01
  2.422896e-01    5.726801e+01
  2.473284e-01    5.847155e+01
  2.523673e-01    5.771861e+01
  2.574061e-01    5.854745e+01
  2.624450e-01    5.856038e+01
  2.674838e-01    5.858304e+01
  2.725227e-01    5.800229e+01
  2.775615e-01    5.842009e+01
  2.826003e-01    5.824217e+01
  2.876392e-01    5.863854e+01
  2.926780e-01    5.920276e+01
  2.977169e-01    5.922091e+01
  3.027557e-01    5.905983e+01
  3.077946e-01    5.902280e+01
  3.128334e-01    5.950233e+01
  3.178723e-01    5.857001e+01
  3.229111e-01    5.900965e+01
  3.279500e-01    5.905914e+01
  3.329888e-01    5.925828e+01
  3.380276e-01    5.956585e+01
  3.430665e-01    5.902974e+01
  3.481053e-01    5.923462e+01
  3.531442e-01    5.965974e+01
  3.581830e-01    6.040499e+01
  3.632219e-01    5.981235e+01
  3.682607e-01    5.921088e+01
  3.732996e-01    6.024914e+01
  3.783384e-01    6.010667e+01
  3.833772e-01    5.952195e+01
  3.884161e-01    5.976654e+01
  3.934549e-01    5.985754e+01
  3.984938e-01    5.991363e+01
  4.035326e-01    5.999149e+01
  4.085715e-01    5.990033e+01
  4.136103e-01    5.986342e+01
  4.186492e-01    5.987666e+01
  4.236880e-01    5.953182e+01
  4.287269e-01    5.990046e+01
  4.337657e-01    5.997570e+01
  4.388045e-01    6.016418e+01
  4.438434e-01    5.992972e+01
  4.488822e-01    5.994743e+01
  4.539211e-01    5.978096e+01
  4.589599e-01    5.999124e+01
  4.639988e-01    6.006884e+01
  4.690376e-01    5.989163e+01
  4.740765e-01    5.974241e+01
  4.791153e-01    5.996728e+01
  4.841541e-01    5.982999e+01
  4.891930e-01    5.981273e+01
  4.942318e-01    5.980066e+01
  4.992707e-01    5.963093e+01
  5.043095e-01    5.965396e+01
  5.093484e-01    5.974608e+01
  5.143872e-01    6.010118e+01
  5.194261e-01    5.986804e+01
  5.244649e-01    6.024590e+01
  5.295038e-01    5.936564e+01
  5.345426e-01    6.001459e+01
  5.395814e-01    6.016723e+01
  5.446203e-01    5.995150e+01
  5.496591e-01    5.986094e+01
  5.546980e-01    5.956678e+01
  5.597368e-01    6.021076e+01
  5.647757e-01    5.990234e+01
  5.698145e-01    6.010776e+01
  5.748534e-01    5.899001e+01
  5.798922e-01    5.997569e+01
  5.849311e-01    5.956091e+01
  5.899699e-01    5.975311e+01
  5.950087e-01    5.964078e+01
  6.000476e-01    5.943980e+01
  6.050864e-01    5.938827e+01
  6.101253e-01    5.977940e+01
  6.151641e-01    5.913074e+01
  6.202030e-01    5.933896e+01
  6.252418e-01    5.929635e+01
  6.302807e-01    5.923918e+01
  6.353195e-01    5.958648e+01
  6.403583e-01    5.943695e+01
  6.453972e-01    5.942851e+01
  6.504360e-01    5.932700e+01
  6.554749e-01    5.929766e+01
  6.605137e-01    5.920572e+01
  6.655526e-01    5.928146e+01
  6.705914e-01    5.944400e+01
  6.756303e-01    5.900747e+01
  6.806691e-01    5.948921e+01
  6.857080e-01    5.906713e+01
  6.907468e-01    5.918075e+01
  6.957856e-01    5.891887e+01
  7.008245e-01    5.907768e+01
  7.058633e-01    5.923838e+01
  7.109022e-01    5.895555e+01
  7.159410e-01    5.915004e+01
  7.209799e-01    5.913004e+01
  7.260187e-01    5.894017e+01
  7.310576e-01    5.907164e+01
  7.360964e-01    5.866830e+01
  7.411353e-01    5.887793e+01
  7.461741e-01    5.916400e+01
  7.512129e-01    5.862966e+01
  7.562518e-01    5.877555e+01
  7.612906e-01    5.875945e+01
  7.663295e-01    5.884821e+01
  7.713683e-01    5.904721e+01
  7.764072e-01    5.886218e+01
  7.814460e-01    5.859082e+01
  7.864849e-01    5.903723e+01
  7.915237e-01    5.876591e+01
  7.965625e-01    5.857690e+01
  8.016014e-01    5.860548e+01
  8.066402e-01    5.882039e+01
  8.116791e-01    5.866014e+01
  8.167179e-01    5.860859e+01
  8.217568e-01    5.891273e+01
  8.267956e-01    5.899018e+01
  8.318345e-01    5.903526e+01
  8.368733e-01    5.853537e+01
  8.419122e-01    5.895059e+01
  8.469510e-01    5.879835e+01
  8.519898e-01    5.906488e+01
  8.570287e-01    5.844390e+01
  8.620675e-01    5.895826e+01
  8.671064e-01    5.871190e+01
  8.721452e-01    5.873874e+01
  8.771841e-01    5.896588e+01
  8.822229e-01    5.872985e+01
  8.872618e-01    5.904555e+01
  8.923006e-01    5.877130e+01
  8.973395e-01    5.883728e+01
  9.023783e-01    5.879049e+01
  9.074171e-01    5.911967e+01
  9.124560e-01    5.911180e+01
  9.174948e-01    5.897382e+01
  9.225337e-01    5.928014e+01
  9.275725e-01    5.922002e+01
  9.326114e-01    5.915321e+01
  9.376502e-01    5.928182e+01
  9.426891e-01    5.909768e+01
  9.477279e-01    5.868032e+01
  9.527667e-01    5.904453e+01
  9.578056e-01    5.929203e+01
  9.628444e-01    5.886188e+01
  9.678833e-01    5.910480e+01
  9.729221e-01    5.923574e+01
  9.779610e-01    5.912968e+01
  9.829998e-01    5.894772e+01
  9.880387e-01    5.955827e+01
  9.930775e-01    5.936267e+01
  9.981164e-01    5.924537e+01
  1.003155e+00    5.955439e+01
  1.008194e+00    5.927770e+01
  1.013233e+00    5.958593e+01
  1.018272e+00    5.939518e+01
  1.023311e+00    5.928842e+01
  1.028349e+00    5.893231e+01
  1.033388e+00    5.906814e+01
  1.038427e+00    5.914479e+01
  1.043466e+00    5.963159e+01
  1.048505e+00    5.939116e+01
  1.053544e+00    5.927307e+01
  1.058582e+00    5.942323e+01
  1.063621e+00    5.959896e+01
  1.068660e+00    5.935528e+01
  1.073699e+00    5.942543e+01
  1.078738e+00    5.923479e+01
  1.083777e+00    5.927309e+01
  1.088816e+00    5.922099e+01
  1.093854e+00    5.927652e+01
  1.098893e+00    5.908944e+01
  1.103932e+00    5.917157e+01
  1.108971e+00    5.953764e+01
  1.114010e+00    5.903206e+01
  1.119049e+00    5.928316e+01
  1.124087e+00    5.927075e+01
  1.129126e+00    5.927188e+01
  1.134165e+00    5.920460e+01
  1.139204e+00    5.906924e+01
  1.144243e+00    5.917673e+01
  1.149282e+00    5.907055e+01
  1.154321e+00    5.885023e+01
  1.159359e+00    5.906633e+01
  1.164398e+00    5.922435e+01
  1.169437e+00    5.882825e+01
  1.174476e+00    5.879191e+01
  1.179515e+00    5.877084e+01
  1.184554e+00    5.898666e+01
  1.189592e+00    5.876887e+01
  1.194631e+00    5.866740e+01
  1.199670e+00    5.881234e+01
  1.204709e+00    5.915274e+01
  1.209748e+00    5.832572e+01
  1.214787e+00    5.833314e+01
  1.219826e+00    5.839168e+01
  1.224864e+00    5.843862e+01
  1.229903e+00    5.818266e+01
  1.234942e+00    5.823792e+01
  1.239981e+00    5.817864e+01
  1.245020e+00    5.810256e+01
  1.250059e+00    5.816930e+01
  1.255097e+00    5.810677e+01
  1.260136e+00    5.870909e+01
  1.265175e+00    5.820174e+01
  1.270214e+00    5.800673e+01
  1.275253e+00    5.807007e+01
  1.280292e+00    5.793036e+01
  1.285331e+00    5.786824e+01
  1.290369e+00    5.773479e+01
  1.295408e+00    5.742176e+01
  1.300447e+00    5.747286e+01
  1.305486e+00    5.771542e+01
  1.310525e+00    5.751868e+01
  1.315564e+00    5.745543e+01
  1.320602e+00    5.723822e+01
  1.325641e+00    5.749588e+01
  1.330680e+00    5.774224e+01
  1.335719e+00    5.700771e+01
  1.340758e+00    5.739731e+01
  1.345797e+00    5.736656e+01
  1.350836e+00    5.692556e+01
  1.355874e+00    5.696872e+01
  1.360913e+00    5.951452e+01
  1.365952e+00    5.672379e+01
  1.370991e+00    5.690778e+01
  1.376030e+00    5.693141e+01
  1.381069e+00    5.712551e+01
  1.386107e+00    5.674740e+01
  1.391146e+00    5.676285e+01
  1.396185e+00    5.700629e+01
  1.401224e+00    5.690442e+01
  1.406263e+00    5.695568e+01
  1.411302e+00    5.690298e+01
  1.416341e+00    5.715587e+01
  1.421379e+00    5.714551e+01
  1.426418e+00    5.713342e+01
  1.431457e+00    5.747913e+01
  1.436496e+00    5.744818e+01
  1.441535e+00    5.806716e+01
  1.446574e+00    5.866835e+01
  1.451612e+00    5.928159e+01
  1.456651e+00    6.118719e+01
  1.461690e+00    6.316816e+01
  1.466729e+00    6.594709e+01
  1.471768e+00    7.116393e+01
  1.476807e+00    6.756519e+01
  1.481845e+00    7.479502e+01
  1.486884e+00    7.474949e+01
  1.491923e+00    6.691869e+01
  1.496962e+00    6.279802e+01
  1.502001e+00    5.972038e+01
  1.507040e+00    5.910091e+01
  1.512079e+00    5.814061e+01
  1.517117e+00    5.728972e+01
  1.522156e+00    5.676445e+01
  1.527195e+00    5.633910e+01
  1.532234e+00    5.611639e+01
  1.537273e+00    5.604159e+01
  1.542312e+00    5.568821e+01
  1.547350e+00    5.560472e+01
  1.552389e+00    5.543329e+01
  1.557428e+00    5.563595e+01
  1.562467e+00    5.537799e+01
  1.567506e+00    5.545578e+01
  1.572545e+00    5.513131e+01
  1.577584e+00    5.510749e+01
  1.582622e+00    5.484392e+01
  1.587661e+00    5.523291e+01
  1.592700e+00    5.519196e+01
  1.597739e+00    5.498101e+01
  1.602778e+00    5.502567e+01
  1.607817e+00    5.527036e+01
  1.612855e+00    5.515375e+01
  1.617894e+00    5.511013e+01
  1.622933e+00    5.546633e+01
  1.627972e+00    5.543060e+01
  1.633011e+00    5.554135e+01
  1.638050e+00    5.551961e+01
  1.643089e+00    5.598004e+01
  1.648127e+00    5.610695e+01
  1.653166e+00    5.601790e+01
  1.658205e+00    5.615232e+01
  1.663244e+00    5.595012e+01
  1.668283e+00    5.634830e+01
  1.673322e+00    5.663525e+01
  1.678360e+00    5.623817e+01
  1.683399e+00    5.672570e+01
  1.688438e+00    5.686703e+01
  1.693477e+00    5.721592e+01
  1.698516e+00    5.730755e+01
  1.703555e+00    5.737851e+01
  1.708594e+00    5.760605e+01
  1.713632e+00    5.778528e+01
  1.718671e+00    5.784301e+01
  1.723710e+00    5.843621e+01
  1.728749e+00    5.861397e+01
  1.733788e+00    5.901331e+01
  1.738827e+00    5.894683e+01
  1.743865e+00    5.913758e+01
  1.748904e+00    5.922873e+01
  1.753943e+00    5.950302e+01
  1.758982e+00    5.974571e+01
  1.764021e+00    6.010129e+01
  1.769060e+00    6.036171e+01
  1.774099e+00    6.062953e+01
  1.779137e+00    6.072986e+01
  1.784176e+00    6.097079e+01
  1.789215e+00    6.122368e+01
  1.794254e+00    6.160126e+01
  1.799293e+00    6.156656e+01
  1.804332e+00    6.167569e+01
  1.809370e+00    6.198758e+01
  1.814409e+00    6.188017e+01
  1.819448e+00    6.256373e+01
  1.824487e+00    6.253009e+01
  1.829526e+00    6.282052e+01
  1.834565e+00    6.274739e+01
  1.839603e+00    6.295061e+01
  1.844642e+00    6.326522e+01
  1.849681e+00    6.293822e+01
  1.854720e+00    6.312403e+01
  1.859759e+00    6.311664e+01
  1.864798e+00    6.366274e+01
  1.869837e+00    6.348278e+01
  1.874875e+00    6.332431e+01
  1.879914e+00    6.353820e+01
  1.884953e+00    6.312509e+01
  1.889992e+00    6.398429e+01
  1.895031e+00    6.350482e+01
  1.900070e+00    6.337602e+01
  1.905108e+00    6.330378e+01
  1.910147e+00    6.372873e+01
  1.915186e+00    6.351945e+01
  1.920225e+00    6.357252e+01
  1.925264e+00    6.353191e+01
  1.930303e+00    6.338661e+01
  1.935342e+00    6.360167e+01
  1.940380e+00    6.305627e+01
  1.945419e+00    6.341547e+01
  1.950458e+00    6.338837e+01
  1.955497e+00    6.322628e+01
  1.960536e+00    6.320444e+01
  1.965575e+00    6.307540e+01
  1.970613e+00    6.309232e+01
  1.975652e+00    6.314953e+01
  1.980691e+00    6.277303e+01
  1.985730e+00    6.245274e+01
  1.990769e+00    6.245921e+01
  1.995808e+00    6.234451e+01
  2.000847e+00    6.216274e+01
  2.005885e+00    6.220273e+01
  2.010924e+00    6.211440e+01
  2.015963e+00    6.170974e+01
  2.021002e+00    6.174236e+01
  2.026041e+00    6.138860e+01
  2.031080e+00    6.168796e+01
  2.036118e+00    6.080649e+01
  2.041157e+00    6.095267e+01
  2.046196e+00    6.083187e+01
  2.051235e+00    6.070152e+01
  2.056274e+00    6.059835e+01
  2.061313e+00    6.038166e+01
  2.066352e+00    6.027579e+01
  2.071390e+00    6.020131e+01
  2.076429e+00    5.996997e+01
  2.081468e+00    6.005888e+01
  2.086507e+00    5.969513e+01
  2.091546e+00    5.979574e+01
  2.096585e+00    5.944190e+01
  2.101623e+00    5.948722e+01
  2.106662e+00    5.934523e+01
  2.111701e+00    5.919977e+01
  2.116740e+00    5.914423e+01
  2.121779e+00    5.892671e+01
  2.126818e+00    5.872779e+01
  2.131857e+00    5.894225e+01
  2.136895e+00    5.852711e+01
  2.141934e+00    5.857292e+01
  2.146973e+00    5.825068e+01
  2.152012e+00    5.857379e+01
  2.157051e+00    5.824883e+01
  2.162090e+00    5.840107e+01
  2.167128e+00    5.814576e+01
  2.172167e+00    5.796157e+01
  2.177206e+00    5.796859e+01
  2.182245e+00    5.805823e+01
  2.187284e+00    5.793282e+01
  2.192323e+00    5.766347e+01
  2.197361e+00    5.791939e+01
  2.202400e+00    5.760017e+01
  2.207439e+00    5.781784e+01
  2.212478e+00    5.754846e+01
  2.217517e+00    5.738056e+01
  2.222556e+00    5.735970e+01
  2.227595e+00    5.729316e+01
  2.232633e+00    5.723876e+01
  2.237672e+00    5.744576e+01
  2.242711e+00    5.719252e+01
  2.247750e+00    5.713932e+01
  2.252789e+00    5.706770e+01
  2.257828e+00    5.671538e+01
  2.262866e+00    5.706884e+01
  2.267905e+00    5.712082e+01
  2.272944e+00    5.683976e+01
  2.277983e+00    5.679074e+01
  2.283022e+00    5.688935e+01
  2.288061e+00    5.666205e+01
  2.293100e+00    5.662221e+01
  2.298138e+00    5.654241e+01
  2.303177e+00    5.660481e+01
  2.308216e+00    5.630204e+01
  2.313255e+00    5.672953e+01
  2.318294e+00    5.621748e+01
  2.323333e+00    5.654102e+01
  2.328371e+00    5.628518e+01
  2.333410e+00    5.627553e+01
  2.338449e+00    5.620565e+01
  2.343488e+00    5.604461e+01
  2.348527e+00    5.614965e+01
  2.353566e+00    5.598269e+01
  2.358605e+00    5.606470e+01
  2.363643e+00    5.632915e+01
  2.368682e+00    5.622727e+01
  2.373721e+00    5.582816e+01
  2.378760e+00    5.591686e+01
  2.383799e+00    5.569689e+01
  2.388838e+00    5.579793e+01
  2.393876e+00    5.564285e+01
  2.398915e+00    5.564567e+01
  2.403954e+00    5.575719e+01
  2.408993e+00    5.572134e+01
  2.414032e+00    5.568604e+01
  2.419071e+00    5.559541e+01
  2.424110e+00    5.552991e+01
  2.429148e+00    5.555802e+01
  2.434187e+00    5.565404e+01
  2.439226e+00    5.568224e+01
  2.444265e+00    5.517223e+01
  2.449304e+00    5.541499e+01
  2.454343e+00    5.539458e+01
  2.459381e+00    5.541924e+01
  2.464420e+00    5.550994e+01
  2.469459e+00    5.513745e+01
  2.474498e+00    5.509998e+01
  2.479537e+00    5.529597e+01
  2.484576e+00    5.518348e+01
  2.489615e+00    5.520365e+01
  2.494653e+00    5.534327e+01
  2.499692e+00    5.529769e+01
  2.504731e+00    5.527962e+01
  2.509770e+00    5.533551e+01
  2.514809e+00    5.546463e+01
  2.519848e+00    5.523835e+01
  2.524886e+00    5.537153e+01
  2.529925e+00    5.511132e+01
  2.534964e+00    5.545753e+01
  2.540003e+00    5.584876e+01
  2.545042e+00    5.563929e+01
  2.550081e+00    5.553273e+01
  2.555120e+00    5.542321e+01
  2.560158e+00    5.538372e+01
  2.565197e+00    5.532279e+01
  2.570236e+00    5.566405e+01
  2.575275e+00    5.557356e+01
  2.580314e+00    5.573908e+01
  2.585353e+00    5.559865e+01
  2.590391e+00    5.552048e+01
  2.595430e+00    5.558348e+01
  2.600469e+00    5.565426e+01
  2.605508e+00    5.577209e+01
  2.610547e+00    5.565939e+01
  2.615586e+00    5.582353e+01
  2.620624e+00    5.571652e+01
  2.625663e+00    5.588260e+01
  2.630702e+00    5.622800e+01
  2.635741e+00    5.615570e+01
  2.640780e+00    5.603015e+01
  2.645819e+00    5.628579e+01
  2.650858e+00    5.661330e+01
  2.655896e+00    5.652596e+01
  2.660935e+00    5.646299e+01
  2.665974e+00    5.655102e+01
  2.671013e+00    5.680127e+01
  2.676052e+00    5.712599e+01
  2.681091e+00    5.698207e+01
  2.686129e+00    5.700562e+01
  2.691168e+00    5.698892e+01
  2.696207e+00    5.720236e+01
  2.701246e+00    5.720339e+01
  2.706285e+00    5.735352e+01
  2.711324e+00    5.727138e+01
  2.716363e+00    5.751214e+01
  2.721401e+00    5.767496e+01
  2.726440e+00    5.768826e+01
  2.731479e+00    5.775071e+01
  2.736518e+00    5.797511e+01
  2.741557e+00    5.811963e+01
  2.746596e+00    5.813013e+01
  2.751634e+00    5.812526e+01
  2.756673e+00    5.827140e+01
  2.761712e+00    5.822530e+01
  2.766751e+00    5.824121e+01
  2.771790e+00    5.828872e+01
  2.776829e+00    5.820912e+01
  2.781868e+00    5.846626e+01
  2.786906e+00    5.862554e+01
  2.791945e+00    5.855382e+01
  2.796984e+00    5.855186e+01
  2.802023e+00    5.864370e+01
  2.807062e+00    5.878053e+01
  2.812101e+00    5.865118e+01
  2.817139e+00    5.863649e+01
  2.822178e+00    5.860093e+01
  2.827217e+00    5.859284e+01
  2.832256e+00    5.861031e+01
  2.837295e+00    5.877002e+01
  2.842334e+00    5.867196e+01
  2.847373e+00    5.851405e+01
  2.852411e+00    5.864536e+01
  2.857450e+00    5.862522e+01
  2.862489e+00    5.871629e+01
  2.867528e+00    5.854543e+01
  2.872567e+00    5.860696e+01
  2.877606e+00    5.850709e+01
  2.882644e+00    5.860749e+01
  2.887683e+00    5.837812e+01
  2.892722e+00    5.880801e+01
  2.897761e+00    5.872576e+01
  2.902800e+00    5.833691e+01
  2.907839e+00    5.852835e+01
  2.912878e+00    5.843843e+01
  2.917916e+00    5.822991e+01
  2.922955e+00    5.811962e+01
  2.927994e+00    5.823362e+01
  2.933033e+00    5.808173e+01
  2.938072e+00    5.817030e+01
  2.943111e+00    5.791845e+01
  2.948149e+00    5.795019e+01
  2.953188e+00    5.778782e+01
  2.958227e+00    5.787512e+01
  2.963266e+00    5.799414e+01
  2.968305e+00    5.786659e+01
  2.973344e+00    5.770675e+01
  2.978382e+00    5.748190e+01
  2.983421e+00    5.766623e+01
  2.988460e+00    5.753378e+01
  2.993499e+00    5.750308e+01
  2.998538e+00    5.744383e+01
  3.003577e+00    5.725768e+01
  3.008616e+00    5.723556e+01
  3.013654e+00    5.736701e+01
  3.018693e+00    5.718488e+01
  3.023732e+00    5.699678e+01
  3.028771e+00    5.736741e+01
  3.033810e+00    5.724172e+01
  3.038849e+00    5.717905e+01
  3.043887e+00    5.722102e+01
  3.048926e+00    5.729555e+01
  3.053965e+00    5.715729e+01
  3.059004e+00    5.730416e+01
  3.064043e+00    5.745735e+01
  3.069082e+00    5.723766e+01
  3.074121e+00    5.738389e+01
  3.079159e+00    5.749420e+01
  3.084198e+00    5.743811e+01
  3.089237e+00    5.764171e+01
  3.094276e+00    5.753121e+01
  3.099315e+00    5.756562e+01
  3.104354e+00    5.716973e+01
  3.109392e+00    5.725830e+01
  3.114431e+00    5.710632e+01
  3.119470e+00    5.717629e+01
  3.124509e+00    5.713795e+01
  3.129548e+00    5.715692e+01
  3.134587e+00    5.747097e+01
  3.139626e+00    5.763058e+01
  3.144664e+00    5.743509e+01
  3.149703e+00    5.764048e+01
  3.154742e+00    5.794668e+01
  3.159781e+00    5.794079e+01
  3.164820e+00    5.852554e+01
  3.169859e+00    5.885840e+01
  3.174897e+00    5.900109e+01
  3.179936e+00    5.974109e+01
  3.184975e+00    5.967603e+01
  3.190014e+00    6.498190e+01
  3.195053e+00    5.964141e+01
  3.200092e+00    5.937819e+01
  3.205131e+00    5.929209e+01
  3.210169e+00    5.911839e+01
  3.215208e+00    5.872077e+01
  3.220247e+00    5.864121e+01
  3.225286e+00    5.845498e+01
  3.230325e+00    5.810556e+01
  3.235364e+00    5.798830e+01
  3.240402e+00    5.777243e+01
  3.245441e+00    5.776289e+01
  3.250480e+00    5.769645e+01
  3.255519e+00    5.747201e+01
  3.260558e+00    5.784537e+01
  3.265597e+00    5.740633e+01
  3.270636e+00    5.723642e+01
  3.275674e+00    5.704417e+01
  3.280713e+00    5.723957e+01
  3.285752e+00    5.718248e+01
  3.290791e+00    5.702636e+01
  3.295830e+00    5.696731e+01
  3.300869e+00    5.711800e+01
  3.305907e+00    5.699497e+01
  3.310946e+00    5.703510e+01
  3.315985e+00    5.695027e+01
  3.321024e+00    5.696019e+01
  3.326063e+00    5.695962e+01
  3.331102e+00    5.678243e+01
  3.336141e+00    5.688715e+01
  3.341179e+00    5.699047e+01
  3.346218e+00    5.702985e+01
  3.351257e+00    5.685057e+01
  3.356296e+00    5.701280e+01
  3.361335e+00    5.675153e+01
  3.366374e+00    5.714286e+01
  3.371412e+00    5.712017e+01
  3.376451e+00    5.715364e+01
  3.381490e+00    5.699373e+01
  3.386529e+00    5.682902e+01
  3.391568e+00    5.684311e+01
  3.396607e+00    5.685184e+01
  3.401645e+00    5.716700e+01
  3.406684e+00    5.703586e+01
  3.411723e+00    5.691828e+01
  3.416762e+00    5.691866e+01
  3.421801e+00    5.704362e+01
  3.426840e+00    5.692931e+01
  3.431879e+00    5.708635e+01
  3.436917e+00    5.730917e+01
  3.441956e+00    5.711394e+01
  3.446995e+00    5.716230e+01
  3.452034e+00    5.718922e+01
  3.457073e+00    5.736292e+01
  3.462112e+00    5.724750e+01
  3.467150e+00    5.732867e+01
  3.472189e+00    5.744938e+01
  3.477228e+00    5.722169e+01
  3.482267e+00    5.723664e+01
  3.487306e+00    5.733408e+01
  3.492345e+00    5.745381e+01
  3.497384e+00    5.743919e+01
  3.502422e+00    5.726662e+01
  3.507461e+00    5.753954e+01
  3.512500e+00    5.744601e+01
  3.517539e+00    5.743010e+01
  3.522578e+00    5.752335e+01
  3.527617e+00    5.769098e+01
  3.532655e+00    5.765141e+01
  3.537694e+00    5.773451e+01
  3.542733e+00    5.749246e+01
  3.547772e+00    5.768653e+01
  3.552811e+00    5.761653e+01
  3.557850e+00    5.788464e+01
  3.562889e+00    5.803086e+01
  3.567927e+00    5.763740e+01
  3.572966e+00    5.779445e+01
  3.578005e+00    5.793974e+01
  3.583044e+00    5.793886e+01
  3.588083e+00    5.809529e+01
  3.593122e+00    5.807421e+01
  3.598160e+00    5.814602e+01
  3.603199e+00    5.836229e+01
  3.608238e+00    5.829672e+01
  3.613277e+00    5.808558e+01
  3.618316e+00    5.827692e+01
  3.623355e+00    5.822684e+01
  3.628394e+00    5.830829e+01
  3.633432e+00    5.838077e+01
  3.638471e+00    5.847640e+01
  3.643510e+00    5.860509e+01
  3.648549e+00    5.831203e+01
  3.653588e+00    5.858842e+01
  3.658627e+00    5.862862e+01
  3.663665e+00    5.870926e+01
  3.668704e+00    5.870102e+01
  3.673743e+00    5.903078e+01
  3.678782e+00    5.878048e+01
  3.683821e+00    5.887420e+01
  3.688860e+00    5.895810e+01
  3.693899e+00    5.883413e+01
  3.698937e+00    5.894762e+01
  3.703976e+00    5.922996e+01
  3.709015e+00    5.910049e+01
  3.714054e+00    5.902541e+01
  3.719093e+00    5.898624e+01
  3.724132e+00    5.916989e+01
  3.729170e+00    5.931335e+01
  3.734209e+00    5.908445e+01
  3.739248e+00    5.930313e+01
  3.744287e+00    5.918062e+01
  3.749326e+00    5.949281e+01
  3.754365e+00    5.966687e+01
  3.759403e+00    6.008200e+01
  3.764442e+00    6.017194e+01
  3.769481e+00    6.003935e+01
  3.774520e+00    5.980233e+01
  3.779559e+00    5.978872e+01
  3.784598e+00    6.003605e+01
  3.789637e+00    6.001469e+01
  3.794675e+00    6.005603e+01
  3.799714e+00    6.015229e+01
  3.804753e+00    6.015102e+01
  3.809792e+00    6.046532e+01
  3.814831e+00    6.034055e+01
  3.819870e+00    6.047110e+01
  3.824908e+00    6.050216e+01
  3.829947e+00    6.098100e+01
  3.834986e+00    6.056379e+01
  3.840025e+00    6.082145e+01
  3.845064e+00    6.108577e+01
  3.850103e+00    6.080496e+01
  3.855142e+00    6.071584e+01
  3.860180e+00    6.085210e+01
  3.865219e+00    6.109731e+01
  3.870258e+00    6.138811e+01
  3.875297e+00    6.111488e+01
  3.880336e+00    6.117584e+01
  3.885375e+00    6.142455e+01
  3.890413e+00    6.140403e+01
  3.895452e+00    6.147187e+01
  3.900491e+00    6.159870e+01
  3.905530e+00    6.153043e+01
  3.910569e+00    6.154985e+01
  3.915608e+00    6.174839e+01
  3.920647e+00    6.155027e+01
  3.925685e+00    6.175597e+01
  3.930724e+00    6.186972e+01
  3.935763e+00    6.165149e+01
  3.940802e+00    6.181471e+01
  3.945841e+00    6.167565e+01
  3.950880e+00    6.185126e+01
  3.955918e+00    6.186281e+01
  3.960957e+00    6.204197e+01
  3.965996e+00    6.191139e+01
  3.971035e+00    6.197324e+01
  3.976074e+00    6.212234e+01
  3.981113e+00    6.216058e+01
  3.986152e+00    6.230381e+01
  3.991190e+00    6.215891e+01
  3.996229e+00    6.239717e+01
  4.001268e+00    6.218113e+01
  4.006307e+00    6.238782e+01
  4.011346e+00    6.215598e+01
  4.016385e+00    6.189002e+01
  4.021423e+00    6.251346e+01
  4.026462e+00    6.211720e+01
  4.031501e+00    6.208501e+01
  4.036540e+00    6.216269e+01
  4.041579e+00    6.213674e+01
  4.046618e+00    6.203547e+01
  4.051657e+00    6.251502e+01
  4.056695e+00    6.210643e+01
  4.061734e+00    6.227550e+01
  4.066773e+00    6.226288e+01
  4.071812e+00    6.219831e+01
  4.076851e+00    6.247974e+01
  4.081890e+00    6.298578e+01
  4.086928e+00    6.295348e+01
  4.091967e+00    6.347569e+01
  4.097006e+00    6.367728e+01
  4.102045e+00    6.384851e+01
  4.107084e+00    6.406696e+01
  4.112123e+00    6.374297e+01
  4.117161e+00    6.409736e+01
  4.122200e+00    6.426994e+01
  4.127239e+00    6.418332e+01
  4.132278e+00    6.471053e+01
  4.137317e+00    6.464206e+01
  4.142356e+00    6.462608e+01
  4.147395e+00    6.446970e+01
  4.152433e+00    6.455527e+01
  4.157472e+00    6.429942e+01
  4.162511e+00    6.424843e+01
  4.167550e+00    6.416750e+01
  4.172589e+00    6.441756e+01
  4.177628e+00    6.430154e+01
  4.182666e+00    6.433408e+01
  4.187705e+00    6.435876e+01
  4.192744e+00    6.465178e+01
  4.197783e+00    6.435815e+01
  4.202822e+00    6.431150e+01
  4.207861e+00    6.457541e+01
  4.212900e+00    6.446626e+01
  4.217938e+00    6.471679e+01
  4.222977e+00    6.472746e+01
  4.228016e+00    6.488190e+01
  4.233055e+00    6.542382e+01
  4.238094e+00    6.506895e+01
  4.243133e+00    6.513879e+01
  4.248171e+00    6.516618e+01
  4.253210e+00    6.516360e+01
  4.258249e+00    6.534734e+01
  4.263288e+00    6.511581e+01
  4.268327e+00    6.566570e+01
  4.273366e+00    6.548057e+01
  4.278405e+00    6.621222e+01
  4.283443e+00    6.612418e+01
  4.288482e+00    6.609827e+01
  4.293521e+00    6.593554e+01
  4.298560e+00    6.644066e+01
  4.303599e+00    6.637225e+01
  4.308638e+00    6.657597e+01
  4.313676e+00    6.679759e+01
  4.318715e+00    6.684118e+01
  4.323754e+00    6.704442e+01
  4.328793e+00    6.735999e+01
  4.333832e+00    6.743526e+01
  4.338871e+00    6.710190e+01
  4.343910e+00    6.766698e+01
  4.348948e+00    6.820223e+01
  4.353987e+00    6.773895e+01
  4.359026e+00    6.820468e+01
  4.364065e+00    6.834901e+01
  4.369104e+00    6.860999e+01
  4.374143e+00    6.917854e+01
  4.379181e+00    6.928987e+01
  4.384220e+00    6.959975e+01
  4.389259e+00    6.982987e+01
  4.394298e+00    7.076936e+01
  4.399337e+00    7.087228e+01
  4.404376e+00    7.130619e+01
  4.409415e+00    7.134123e+01
  4.414453e+00    7.189056e+01
  4.419492e+00    7.184801e+01
  4.424531e+00    7.276426e+01
  4.429570e+00    7.297455e+01
  4.434609e+00    7.345480e+01
  4.439648e+00    7.419774e+01
  4.444686e+00    7.428144e+01
  4.449725e+00    7.496275e+01
  4.454764e+00    7.588266e+01
  4.459803e+00    7.631030e+01
  4.464842e+00    7.695557e+01
  4.469881e+00    7.778423e+01
  4.474920e+00    7.841391e+01
  4.479958e+00    7.927108e+01
  4.484997e+00    7.978307e+01
  4.490036e+00    8.112788e+01
  4.495075e+00    8.199021e+01
  4.500114e+00    8.292927e+01
  4.505153e+00    8.428407e+01
  4.510191e+00    8.469646e+01
  4.515230e+00    8.581518e+01
  4.520269e+00    8.681098e+01
  4.525308e+00    8.772445e+01
  4.530347e+00    8.838909e+01
  4.535386e+00    8.902116e+01
  4.540424e+00    9.080111e+01
  4.545463e+00    9.106970e+01
  4.550502e+00    9.261903e+01
  4.555541e+00    9.333088e+01
  4.560580e+00    9.465800e+01
  4.565619e+00    9.580741e+01
  4.570658e+00    9.760084e+01
  4.575696e+00    9.797693e+01
  4.580735e+00    9.997805e+01
  4.585774e+00    1.011991e+02
  4.590813e+00    1.040379e+02
  4.595852e+00    1.044943e+02
  4.600891e+00    1.059208e+02
  4.605929e+00    1.074222e+02
  4.610968e+00    1.088594e+02
  4.616007e+00    1.108712e+02
  4.621046e+00    1.131158e+02
  4.626085e+00    1.136560e+02
  4.631124e+00    1.148263e+02
  4.636163e+00    1.164908e+02
  4.641201e+00    1.178065e+02
  4.646240e+00    1.196238e+02
  4.651279e+00    1.216534e+02
  4.656318e+00    1.216310e+02
  4.661357e+00    1.225370e+02
  4.666396e+00    1.248541e+02
  4.671434e+00    1.258808e+02
  4.676473e+00    1.256796e+02
  4.681512e+00    1.273909e+02
  4.686551e+00    1.289562e+02
  4.691590e+00    1.277223e+02
  4.696629e+00    1.271928e+02
  4.701668e+00    1.271204e+02
  4.706706e+00    1.274606e+02
  4.711745e+00    1.267566e+02
  4.716784e+00    1.264794e+02
  4.721823e+00    1.269507e+02
  4.726862e+00    1.257110e+02
  4.731901e+00    1.257483e+02
  4.736939e+00    1.253275e+02
  4.741978e+00    1.245239e+02
  4.747017e+00    1.239517e+02
  4.752056e+00    1.240709e+02
  4.757095e+00    1.236815e+02
  4.762134e+00    1.224151e+02
  4.767173e+00    1.216230e+02
  4.772211e+00    1.208937e+02
  4.777250e+00    1.212291e+02
  4.782289e+00    1.201870e+02
  4.787328e+00    1.189001e+02
  4.792367e+00    1.189134e+02
  4.797406e+00    1.166717e+02
  4.802444e+00    1.163367e+02
  4.807483e+00    1.156286e+02
  4.812522e+00    1.146554e+02
  4.817561e+00    1.141438e+02
  4.822600e+00    1.120870e+02
  4.827639e+00    1.126102e+02
  4.832678e+00    1.113218e+02
  4.837716e+00    1.099023e+02
  4.842755e+00    1.088199e+02
  4.847794e+00    1.089362e+02
  4.852833e+00    1.062467e+02
  4.857872e+00    1.062206e+02
  4.862911e+00    1.058793e+02
  4.867949e+00    1.038803e+02
  4.872988e+00    1.037477e+02
  4.878027e+00    1.025528e+02
  4.883066e+00    1.013813e+02
  4.888105e+00    1.012005e+02
  4.893144e+00    1.004768e+02
  4.898182e+00    9.872890e+01
  4.903221e+00    9.778301e+01
  4.908260e+00    9.694180e+01
  4.913299e+00    9.644785e+01
  4.918338e+00    9.428248e+01
  4.923377e+00    9.371284e+01
  4.928416e+00    9.254390e+01
  4.933454e+00    9.168339e+01
  4.938493e+00    9.086358e+01
  4.943532e+00    9.091831e+01
  4.948571e+00    8.920440e+01
  4.953610e+00    8.980353e+01
  4.958649e+00    8.687994e+01
  4.963687e+00    8.723968e+01
  4.968726e+00    8.522442e+01
  4.973765e+00    8.522199e+01
  4.978804e+00    8.377752e+01
  4.983843e+00    8.362418e+01
  4.988882e+00    8.170552e+01
  4.993921e+00    8.206300e+01
  4.998959e+00    8.221011e+01
  5.003998e+00    8.005379e+01
  5.009037e+00    7.887544e+01
  5.014076e+00    7.901487e+01
  5.019115e+00    7.727830e+01
  5.024154e+00    7.664720e+01
  5.029192e+00    7.715592e+01
  5.034231e+00    7.651431e+01
  5.039270e+00    7.671322e+01
  5.044309e+00    7.442817e+01
  5.049348e+00    7.329015e+01
  5.054387e+00    7.376424e+01
  5.059426e+00    7.304005e+01
  5.064464e+00    7.311498e+01
  5.069503e+00    7.279675e+01
  5.074542e+00    7.235435e+01
  5.079581e+00    7.143597e+01
  5.084620e+00    7.119438e+01
  5.089659e+00    7.002684e+01
  5.094697e+00    7.071120e+01
  5.099736e+00    6.592759e+01
  5.104775e+00    7.011994e+01
  5.109814e+00    6.848669e+01
  5.114853e+00    6.663337e+01
  5.119892e+00    6.926739e+01
  5.124931e+00    6.641550e+01
  5.129969e+00    6.706231e+01
  5.135008e+00    6.600050e+01
  5.140047e+00    6.468748e+01
  5.145086e+00    6.295177e+01
  5.150125e+00    6.159024e+01
