# == pyFAI calibration ==
# Distance Sample to Detector: 0.12919864315695237 m
# PONI: 9.601e-02, 9.529e-02 m
# Rotations: 0.006465 0.000205 0.000000 rad
# 
# == Fit2d calibration ==
# Distance Sample-beamCenter: 129.201 mm
# Center: x=1259.455, y=1280.428 pix
# Tilt: 0.371 deg  TiltPlanRot: 178.181 deg
# 
# Detector Eiger 4M	 PixelSize= 7.500e-05, 7.500e-05 m
#    Detector has a mask: True 
#    Detector has a dark current: False 
#    detector has a flat field: False 
# 
# Wavelength: 9.537246033323096e-11 m
# Mask applied: from detector
# Dark current applied: False
# Flat field applied: False
# Polarization factor: None
# Normalization factor: 1.0
# --> /mnt/multipath-shares/tmp_14_days/es1097_ux/zp1_yp0_avg.dat
#        q_A^-1             I 
  1.163185e-01    4.499413e+01
  1.213573e-01    4.480273e+01
  1.263961e-01    4.517533e+01
  1.314350e-01    4.545057e+01
  1.364738e-01    4.600759e+01
  1.415127e-01    4.638697e+01
  1.465515e-01    4.670021e+01
  1.515904e-01    4.616650e+01
  1.566292e-01    4.541787e+01
  1.616681e-01    4.487499e+01
  1.667069e-01    4.476812e+01
  1.717458e-01    4.479234e+01
  1.767846e-01    4.497277e+01
  1.818234e-01    4.501131e+01
  1.868623e-01    4.523851e+01
  1.919011e-01    4.530979e+01
  1.969400e-01    4.545668e+01
  2.019788e-01    4.566055e+01
  2.070177e-01    4.580937e+01
  2.120565e-01    4.589628e+01
  2.170954e-01    4.606065e+01
  2.221342e-01    4.618899e+01
  2.271730e-01    4.633028e+01
  2.322119e-01    4.647116e+01
  2.372507e-01    4.661549e+01
  2.422896e-01    4.667616e+01
  2.473284e-01    4.681320e+01
  2.523673e-01    4.689805e+01
  2.574061e-01    4.697220e+01
  2.624450e-01    4.707929e+01
  2.674838e-01    4.716069e+01
  2.725227e-01    4.723976e+01
  2.775615e-01    4.728851e+01
  2.826003e-01    4.734136e+01
  2.876392e-01    4.739733e+01
  2.926780e-01    4.747439e+01
  2.977169e-01    4.757678e+01
  3.027557e-01    4.766109e+01
  3.077946e-01    4.774044e+01
  3.128334e-01    4.775374e+01
  3.178723e-01    4.781809e+01
  3.229111e-01    4.791554e+01
  3.279500e-01    4.797468e+01
  3.329888e-01    4.802430e+01
  3.380276e-01    4.813342e+01
  3.430665e-01    4.815327e+01
  3.481053e-01    4.817051e+01
  3.531442e-01    4.820250e+01
  3.581830e-01    4.822519e+01
  3.632219e-01    4.825012e+01
  3.682607e-01    4.828106e+01
  3.732996e-01    4.831105e+01
  3.783384e-01    4.834614e+01
  3.833772e-01    4.836225e+01
  3.884161e-01    4.837856e+01
  3.934549e-01    4.838995e+01
  3.984938e-01    4.839604e+01
  4.035326e-01    4.845426e+01
  4.085715e-01    4.846777e+01
  4.136103e-01    4.846219e+01
  4.186492e-01    4.851848e+01
  4.236880e-01    4.849569e+01
  4.287269e-01    4.852857e+01
  4.337657e-01    4.855630e+01
  4.388045e-01    4.853767e+01
  4.438434e-01    4.854300e+01
  4.488822e-01    4.858638e+01
  4.539211e-01    4.861523e+01
  4.589599e-01    4.862245e+01
  4.639988e-01    4.865847e+01
  4.690376e-01    4.864042e+01
  4.740765e-01    4.860812e+01
  4.791153e-01    4.861588e+01
  4.841541e-01    4.862567e+01
  4.891930e-01    4.866711e+01
  4.942318e-01    4.866955e+01
  4.992707e-01    4.864635e+01
  5.043095e-01    4.865030e+01
  5.093484e-01    4.862172e+01
  5.143872e-01    4.859423e+01
  5.194261e-01    4.860983e+01
  5.244649e-01    4.858040e+01
  5.295038e-01    4.858553e+01
  5.345426e-01    4.858155e+01
  5.395814e-01    4.859425e+01
  5.446203e-01    4.859268e+01
  5.496591e-01    4.858294e+01
  5.546980e-01    4.859006e+01
  5.597368e-01    4.860062e+01
  5.647757e-01    4.858069e+01
  5.698145e-01    4.853569e+01
  5.748534e-01    4.851662e+01
  5.798922e-01    4.848497e+01
  5.849311e-01    4.845900e+01
  5.899699e-01    4.846556e+01
  5.950087e-01    4.841938e+01
  6.000476e-01    4.840200e+01
  6.050864e-01    4.839682e+01
  6.101253e-01    4.836299e+01
  6.151641e-01    4.834812e+01
  6.202030e-01    4.834529e+01
  6.252418e-01    4.832958e+01
  6.302807e-01    4.833002e+01
  6.353195e-01    4.832990e+01
  6.403583e-01    4.823252e+01
  6.453972e-01    4.819936e+01
  6.504360e-01    4.818332e+01
  6.554749e-01    4.815884e+01
  6.605137e-01    4.812418e+01
  6.655526e-01    4.811961e+01
  6.705914e-01    4.810828e+01
  6.756303e-01    4.813046e+01
  6.806691e-01    4.815274e+01
  6.857080e-01    4.807307e+01
  6.907468e-01    4.804892e+01
  6.957856e-01    4.801660e+01
  7.008245e-01    4.798948e+01
  7.058633e-01    4.795684e+01
  7.109022e-01    4.792714e+01
  7.159410e-01    4.790275e+01
  7.209799e-01    4.788187e+01
  7.260187e-01    4.787629e+01
  7.310576e-01    4.784810e+01
  7.360964e-01    4.781696e+01
  7.411353e-01    4.779164e+01
  7.461741e-01    4.779187e+01
  7.512129e-01    4.776842e+01
  7.562518e-01    4.774718e+01
  7.612906e-01    4.771260e+01
  7.663295e-01    4.769810e+01
  7.713683e-01    4.771886e+01
  7.764072e-01    4.769036e+01
  7.814460e-01    4.767791e+01
  7.864849e-01    4.765354e+01
  7.915237e-01    4.765256e+01
  7.965625e-01    4.763395e+01
  8.016014e-01    4.765138e+01
  8.066402e-01    4.763653e+01
  8.116791e-01    4.766897e+01
  8.167179e-01    4.772367e+01
  8.217568e-01    4.790591e+01
  8.267956e-01    4.786922e+01
  8.318345e-01    4.783288e+01
  8.368733e-01    4.778904e+01
  8.419122e-01    4.777374e+01
  8.469510e-01    4.777577e+01
  8.519898e-01    4.776662e+01
  8.570287e-01    4.781072e+01
  8.620675e-01    4.778497e+01
  8.671064e-01    4.778626e+01
  8.721452e-01    4.790385e+01
  8.771841e-01    4.788572e+01
  8.822229e-01    4.784890e+01
  8.872618e-01    4.785254e+01
  8.923006e-01    4.782791e+01
  8.973395e-01    4.786048e+01
  9.023783e-01    4.789306e+01
  9.074171e-01    4.786193e+01
  9.124560e-01    4.784779e+01
  9.174948e-01    4.789837e+01
  9.225337e-01    4.790410e+01
  9.275725e-01    4.787923e+01
  9.326114e-01    4.791800e+01
  9.376502e-01    4.791565e+01
  9.426891e-01    4.795258e+01
  9.477279e-01    4.798389e+01
  9.527667e-01    4.812204e+01
  9.578056e-01    4.829384e+01
  9.628444e-01    4.805140e+01
  9.678833e-01    4.804335e+01
  9.729221e-01    4.806503e+01
  9.779610e-01    4.809628e+01
  9.829998e-01    4.808499e+01
  9.880387e-01    4.812397e+01
  9.930775e-01    4.813625e+01
  9.981164e-01    4.813135e+01
  1.003155e+00    4.815681e+01
  1.008194e+00    4.811818e+01
  1.013233e+00    4.815105e+01
  1.018272e+00    4.816599e+01
  1.023311e+00    4.815699e+01
  1.028349e+00    4.814531e+01
  1.033388e+00    4.818250e+01
  1.038427e+00    4.816385e+01
  1.043466e+00    4.817846e+01
  1.048505e+00    4.817680e+01
  1.053544e+00    4.818211e+01
  1.058582e+00    4.818451e+01
  1.063621e+00    4.816244e+01
  1.068660e+00    4.816812e+01
  1.073699e+00    4.816568e+01
  1.078738e+00    4.814143e+01
  1.083777e+00    4.815658e+01
  1.088816e+00    4.814098e+01
  1.093854e+00    4.811005e+01
  1.098893e+00    4.810929e+01
  1.103932e+00    4.815050e+01
  1.108971e+00    4.809137e+01
  1.114010e+00    4.804703e+01
  1.119049e+00    4.802509e+01
  1.124087e+00    4.801367e+01
  1.129126e+00    4.797349e+01
  1.134165e+00    4.797026e+01
  1.139204e+00    4.795230e+01
  1.144243e+00    4.791908e+01
  1.149282e+00    4.789612e+01
  1.154321e+00    4.788560e+01
  1.159359e+00    4.785117e+01
  1.164398e+00    4.777382e+01
  1.169437e+00    4.776201e+01
  1.174476e+00    4.774759e+01
  1.179515e+00    4.772534e+01
  1.184554e+00    4.767311e+01
  1.189592e+00    4.766021e+01
  1.194631e+00    4.761872e+01
  1.199670e+00    4.755634e+01
  1.204709e+00    4.878042e+01
  1.209748e+00    4.749782e+01
  1.214787e+00    4.743999e+01
  1.219826e+00    4.743026e+01
  1.224864e+00    4.737510e+01
  1.229903e+00    4.733913e+01
  1.234942e+00    4.731792e+01
  1.239981e+00    4.724819e+01
  1.245020e+00    4.721811e+01
  1.250059e+00    4.716906e+01
  1.255097e+00    4.722285e+01
  1.260136e+00    4.759923e+01
  1.265175e+00    4.711485e+01
  1.270214e+00    4.704893e+01
  1.275253e+00    4.700767e+01
  1.280292e+00    4.693765e+01
  1.285331e+00    4.692301e+01
  1.290369e+00    4.682952e+01
  1.295408e+00    4.677948e+01
  1.300447e+00    4.679114e+01
  1.305486e+00    4.669404e+01
  1.310525e+00    4.666143e+01
  1.315564e+00    4.661205e+01
  1.320602e+00    4.653146e+01
  1.325641e+00    4.655350e+01
  1.330680e+00    4.644999e+01
  1.335719e+00    4.640272e+01
  1.340758e+00    4.643449e+01
  1.345797e+00    4.634186e+01
  1.350836e+00    4.634064e+01
  1.355874e+00    4.627340e+01
  1.360913e+00    4.835857e+01
  1.365952e+00    4.619554e+01
  1.370991e+00    4.614733e+01
  1.376030e+00    4.611094e+01
  1.381069e+00    4.609631e+01
  1.386107e+00    4.604700e+01
  1.391146e+00    4.604668e+01
  1.396185e+00    4.606589e+01
  1.401224e+00    4.617253e+01
  1.406263e+00    4.624116e+01
  1.411302e+00    4.616437e+01
  1.416341e+00    4.630392e+01
  1.421379e+00    4.631450e+01
  1.426418e+00    4.641506e+01
  1.431457e+00    4.657763e+01
  1.436496e+00    4.679322e+01
  1.441535e+00    4.703592e+01
  1.446574e+00    4.757016e+01
  1.451612e+00    4.806095e+01
  1.456651e+00    4.940215e+01
  1.461690e+00    5.091081e+01
  1.466729e+00    5.487597e+01
  1.471768e+00    5.980331e+01
  1.476807e+00    5.448049e+01
  1.481845e+00    6.002273e+01
  1.486884e+00    6.046253e+01
  1.491923e+00    5.425555e+01
  1.496962e+00    5.106570e+01
  1.502001e+00    4.872476e+01
  1.507040e+00    4.777290e+01
  1.512079e+00    4.702601e+01
  1.517117e+00    4.638739e+01
  1.522156e+00    4.600684e+01
  1.527195e+00    4.569778e+01
  1.532234e+00    4.547497e+01
  1.537273e+00    4.524852e+01
  1.542312e+00    4.513084e+01
  1.547350e+00    4.500702e+01
  1.552389e+00    4.490514e+01
  1.557428e+00    4.487701e+01
  1.562467e+00    4.479517e+01
  1.567506e+00    4.472115e+01
  1.572545e+00    4.468360e+01
  1.577584e+00    4.466543e+01
  1.582622e+00    4.467029e+01
  1.587661e+00    4.462926e+01
  1.592700e+00    4.466061e+01
  1.597739e+00    4.468361e+01
  1.602778e+00    4.468158e+01
  1.607817e+00    4.473743e+01
  1.612855e+00    4.475314e+01
  1.617894e+00    4.480127e+01
  1.622933e+00    4.483953e+01
  1.627972e+00    4.492393e+01
  1.633011e+00    4.500118e+01
  1.638050e+00    4.501963e+01
  1.643089e+00    4.516932e+01
  1.648127e+00    4.519670e+01
  1.653166e+00    4.528619e+01
  1.658205e+00    4.539332e+01
  1.663244e+00    4.543664e+01
  1.668283e+00    4.558196e+01
  1.673322e+00    4.571296e+01
  1.678360e+00    4.577329e+01
  1.683399e+00    4.597171e+01
  1.688438e+00    4.605722e+01
  1.693477e+00    4.624434e+01
  1.698516e+00    4.636068e+01
  1.703555e+00    4.652361e+01
  1.708594e+00    4.670073e+01
  1.713632e+00    4.686560e+01
  1.718671e+00    4.703557e+01
  1.723710e+00    4.735905e+01
  1.728749e+00    4.849660e+01
  1.733788e+00    5.193839e+01
  1.738827e+00    5.052170e+01
  1.743865e+00    4.830122e+01
  1.748904e+00    4.810130e+01
  1.753943e+00    4.835796e+01
  1.758982e+00    4.842542e+01
  1.764021e+00    4.866013e+01
  1.769060e+00    4.881178e+01
  1.774099e+00    4.903933e+01
  1.779137e+00    4.916463e+01
  1.784176e+00    4.935402e+01
  1.789215e+00    4.960337e+01
  1.794254e+00    4.976010e+01
  1.799293e+00    4.992030e+01
  1.804332e+00    4.998241e+01
  1.809370e+00    5.025400e+01
  1.814409e+00    5.032218e+01
  1.819448e+00    5.064745e+01
  1.824487e+00    5.062306e+01
  1.829526e+00    5.074739e+01
  1.834565e+00    5.082567e+01
  1.839603e+00    5.089956e+01
  1.844642e+00    5.108954e+01
  1.849681e+00    5.106695e+01
  1.854720e+00    5.115419e+01
  1.859759e+00    5.110784e+01
  1.864798e+00    5.144745e+01
  1.869837e+00    5.132629e+01
  1.874875e+00    5.133382e+01
  1.879914e+00    5.136419e+01
  1.884953e+00    5.123977e+01
  1.889992e+00    5.161377e+01
  1.895031e+00    5.132975e+01
  1.900070e+00    5.147300e+01
  1.905108e+00    5.128691e+01
  1.910147e+00    5.160929e+01
  1.915186e+00    5.150777e+01
  1.920225e+00    5.148107e+01
  1.925264e+00    5.141513e+01
  1.930303e+00    5.144561e+01
  1.935342e+00    5.163945e+01
  1.940380e+00    5.120499e+01
  1.945419e+00    5.143254e+01
  1.950458e+00    5.135497e+01
  1.955497e+00    5.122709e+01
  1.960536e+00    5.108145e+01
  1.965575e+00    5.096225e+01
  1.970613e+00    5.100943e+01
  1.975652e+00    5.093995e+01
  1.980691e+00    5.060470e+01
  1.985730e+00    5.070931e+01
  1.990769e+00    5.060367e+01
  1.995808e+00    5.043094e+01
  2.000847e+00    5.036344e+01
  2.005885e+00    5.017506e+01
  2.010924e+00    5.024812e+01
  2.015963e+00    4.994582e+01
  2.021002e+00    4.980338e+01
  2.026041e+00    4.969623e+01
  2.031080e+00    4.975265e+01
  2.036118e+00    4.939193e+01
  2.041157e+00    4.941397e+01
  2.046196e+00    4.921460e+01
  2.051235e+00    4.916482e+01
  2.056274e+00    4.896564e+01
  2.061313e+00    4.892727e+01
  2.066352e+00    4.880092e+01
  2.071390e+00    4.864513e+01
  2.076429e+00    4.850502e+01
  2.081468e+00    4.849193e+01
  2.086507e+00    4.832513e+01
  2.091546e+00    4.829979e+01
  2.096585e+00    4.815241e+01
  2.101623e+00    4.805848e+01
  2.106662e+00    4.795520e+01
  2.111701e+00    4.791028e+01
  2.116740e+00    4.779112e+01
  2.121779e+00    4.771296e+01
  2.126818e+00    4.762037e+01
  2.131857e+00    4.755323e+01
  2.136895e+00    4.749598e+01
  2.141934e+00    4.740076e+01
  2.146973e+00    4.735168e+01
  2.152012e+00    4.731303e+01
  2.157051e+00    4.721756e+01
  2.162090e+00    4.722550e+01
  2.167128e+00    4.715719e+01
  2.172167e+00    4.703856e+01
  2.177206e+00    4.700711e+01
  2.182245e+00    4.693965e+01
  2.187284e+00    4.686906e+01
  2.192323e+00    4.680424e+01
  2.197361e+00    4.679673e+01
  2.202400e+00    4.669889e+01
  2.207439e+00    4.670481e+01
  2.212478e+00    4.660176e+01
  2.217517e+00    4.656775e+01
  2.222556e+00    4.657484e+01
  2.227595e+00    4.648461e+01
  2.232633e+00    4.643077e+01
  2.237672e+00    4.641642e+01
  2.242711e+00    4.633038e+01
  2.247750e+00    4.631194e+01
  2.252789e+00    4.628522e+01
  2.257828e+00    4.617180e+01
  2.262866e+00    4.624362e+01
  2.267905e+00    4.612561e+01
  2.272944e+00    4.614065e+01
  2.277983e+00    4.607176e+01
  2.283022e+00    4.599722e+01
  2.288061e+00    4.598113e+01
  2.293100e+00    4.594366e+01
  2.298138e+00    4.590616e+01
  2.303177e+00    4.593381e+01
  2.308216e+00    4.576262e+01
  2.313255e+00    4.585762e+01
  2.318294e+00    4.569207e+01
  2.323333e+00    4.573177e+01
  2.328371e+00    4.564885e+01
  2.333410e+00    4.561559e+01
  2.338449e+00    4.562546e+01
  2.343488e+00    4.560505e+01
  2.348527e+00    4.568196e+01
  2.353566e+00    4.601422e+01
  2.358605e+00    4.865238e+01
  2.363643e+00    5.118331e+01
  2.368682e+00    4.837592e+01
  2.373721e+00    4.584053e+01
  2.378760e+00    4.541118e+01
  2.383799e+00    4.527198e+01
  2.388838e+00    4.523865e+01
  2.393876e+00    4.518070e+01
  2.398915e+00    4.514975e+01
  2.403954e+00    4.515202e+01
  2.408993e+00    4.512828e+01
  2.414032e+00    4.507330e+01
  2.419071e+00    4.505931e+01
  2.424110e+00    4.502726e+01
  2.429148e+00    4.502893e+01
  2.434187e+00    4.500051e+01
  2.439226e+00    4.500151e+01
  2.444265e+00    4.493691e+01
  2.449304e+00    4.495940e+01
  2.454343e+00    4.491259e+01
  2.459381e+00    4.494073e+01
  2.464420e+00    4.494448e+01
  2.469459e+00    4.492945e+01
  2.474498e+00    4.485661e+01
  2.479537e+00    4.488112e+01
  2.484576e+00    4.484726e+01
  2.489615e+00    4.483475e+01
  2.494653e+00    4.484004e+01
  2.499692e+00    4.481251e+01
  2.504731e+00    4.487538e+01
  2.509770e+00    4.483958e+01
  2.514809e+00    4.486726e+01
  2.519848e+00    4.487945e+01
  2.524886e+00    4.502234e+01
  2.529925e+00    4.542114e+01
  2.534964e+00    4.788023e+01
  2.540003e+00    4.986954e+01
  2.545042e+00    4.772456e+01
  2.550081e+00    4.555050e+01
  2.555120e+00    4.506915e+01
  2.560158e+00    4.503501e+01
  2.565197e+00    4.502781e+01
  2.570236e+00    4.501507e+01
  2.575275e+00    4.502841e+01
  2.580314e+00    4.521662e+01
  2.585353e+00    4.508270e+01
  2.590391e+00    4.507179e+01
  2.595430e+00    4.515508e+01
  2.600469e+00    4.514617e+01
  2.605508e+00    4.520132e+01
  2.610547e+00    4.524138e+01
  2.615586e+00    4.527544e+01
  2.620624e+00    4.533359e+01
  2.625663e+00    4.541845e+01
  2.630702e+00    4.551699e+01
  2.635741e+00    4.560120e+01
  2.640780e+00    4.566067e+01
  2.645819e+00    4.570209e+01
  2.650858e+00    4.583305e+01
  2.655896e+00    4.589469e+01
  2.660935e+00    4.593958e+01
  2.665974e+00    4.603761e+01
  2.671013e+00    4.606852e+01
  2.676052e+00    4.617443e+01
  2.681091e+00    4.621568e+01
  2.686129e+00    4.630327e+01
  2.691168e+00    4.636681e+01
  2.696207e+00    4.636678e+01
  2.701246e+00    4.648038e+01
  2.706285e+00    4.650197e+01
  2.711324e+00    4.662780e+01
  2.716363e+00    4.672130e+01
  2.721401e+00    4.679300e+01
  2.726440e+00    4.689065e+01
  2.731479e+00    4.695429e+01
  2.736518e+00    4.704640e+01
  2.741557e+00    4.719249e+01
  2.746596e+00    4.714687e+01
  2.751634e+00    4.717442e+01
  2.756673e+00    4.720730e+01
  2.761712e+00    4.726838e+01
  2.766751e+00    4.730683e+01
  2.771790e+00    4.740012e+01
  2.776829e+00    4.763898e+01
  2.781868e+00    4.765411e+01
  2.786906e+00    4.754889e+01
  2.791945e+00    4.749482e+01
  2.796984e+00    4.752502e+01
  2.802023e+00    4.756245e+01
  2.807062e+00    4.756437e+01
  2.812101e+00    4.761237e+01
  2.817139e+00    4.763984e+01
  2.822178e+00    4.763503e+01
  2.827217e+00    4.764695e+01
  2.832256e+00    4.763999e+01
  2.837295e+00    4.763125e+01
  2.842334e+00    4.764629e+01
  2.847373e+00    4.763892e+01
  2.852411e+00    4.763167e+01
  2.857450e+00    4.758818e+01
  2.862489e+00    4.758983e+01
  2.867528e+00    4.758601e+01
  2.872567e+00    4.754261e+01
  2.877606e+00    4.756104e+01
  2.882644e+00    4.760081e+01
  2.887683e+00    4.802667e+01
  2.892722e+00    4.980618e+01
  2.897761e+00    4.942521e+01
  2.902800e+00    4.796071e+01
  2.907839e+00    4.755880e+01
  2.912878e+00    4.744119e+01
  2.917916e+00    4.733887e+01
  2.922955e+00    4.736350e+01
  2.927994e+00    4.731916e+01
  2.933033e+00    4.724076e+01
  2.938072e+00    4.724648e+01
  2.943111e+00    4.715561e+01
  2.948149e+00    4.710237e+01
  2.953188e+00    4.704955e+01
  2.958227e+00    4.700864e+01
  2.963266e+00    4.695932e+01
  2.968305e+00    4.690508e+01
  2.973344e+00    4.686512e+01
  2.978382e+00    4.680633e+01
  2.983421e+00    4.677135e+01
  2.988460e+00    4.673129e+01
  2.993499e+00    4.662759e+01
  2.998538e+00    4.667324e+01
  3.003577e+00    4.663895e+01
  3.008616e+00    4.653073e+01
  3.013654e+00    4.658960e+01
  3.018693e+00    4.659732e+01
  3.023732e+00    4.650126e+01
  3.028771e+00    4.653770e+01
  3.033810e+00    4.650500e+01
  3.038849e+00    4.653702e+01
  3.043887e+00    4.650829e+01
  3.048926e+00    4.651409e+01
  3.053965e+00    4.655321e+01
  3.059004e+00    4.651475e+01
  3.064043e+00    4.664149e+01
  3.069082e+00    4.682109e+01
  3.074121e+00    4.705837e+01
  3.079159e+00    4.692122e+01
  3.084198e+00    4.673345e+01
  3.089237e+00    4.672386e+01
  3.094276e+00    4.671103e+01
  3.099315e+00    4.683843e+01
  3.104354e+00    4.660813e+01
  3.109392e+00    4.649442e+01
  3.114431e+00    4.646486e+01
  3.119470e+00    4.652300e+01
  3.124509e+00    4.654855e+01
  3.129548e+00    4.659095e+01
  3.134587e+00    4.668507e+01
  3.139626e+00    4.676406e+01
  3.144664e+00    4.689703e+01
  3.149703e+00    4.700815e+01
  3.154742e+00    4.721431e+01
  3.159781e+00    4.728627e+01
  3.164820e+00    4.758764e+01
  3.169859e+00    4.779657e+01
  3.174897e+00    4.802345e+01
  3.179936e+00    4.823510e+01
  3.184975e+00    4.836547e+01
  3.190014e+00    5.277061e+01
  3.195053e+00    4.844485e+01
  3.200092e+00    4.837649e+01
  3.205131e+00    4.824849e+01
  3.210169e+00    4.805592e+01
  3.215208e+00    4.782822e+01
  3.220247e+00    4.765767e+01
  3.225286e+00    4.746827e+01
  3.230325e+00    4.735686e+01
  3.235364e+00    4.721127e+01
  3.240402e+00    4.702820e+01
  3.245441e+00    4.699231e+01
  3.250480e+00    4.686750e+01
  3.255519e+00    4.676806e+01
  3.260558e+00    4.666727e+01
  3.265597e+00    4.660376e+01
  3.270636e+00    4.651519e+01
  3.275674e+00    4.654083e+01
  3.280713e+00    4.666437e+01
  3.285752e+00    4.642743e+01
  3.290791e+00    4.639461e+01
  3.295830e+00    4.636495e+01
  3.300869e+00    4.637899e+01
  3.305907e+00    4.636020e+01
  3.310946e+00    4.634403e+01
  3.315985e+00    4.634766e+01
  3.321024e+00    4.636399e+01
  3.326063e+00    4.636011e+01
  3.331102e+00    4.634738e+01
  3.336141e+00    4.634413e+01
  3.341179e+00    4.636342e+01
  3.346218e+00    4.636481e+01
  3.351257e+00    4.638908e+01
  3.356296e+00    4.636971e+01
  3.361335e+00    4.634689e+01
  3.366374e+00    4.637026e+01
  3.371412e+00    4.638564e+01
  3.376451e+00    4.641817e+01
  3.381490e+00    4.640080e+01
  3.386529e+00    4.641406e+01
  3.391568e+00    4.644415e+01
  3.396607e+00    4.642080e+01
  3.401645e+00    4.645784e+01
  3.406684e+00    4.648226e+01
  3.411723e+00    4.644106e+01
  3.416762e+00    4.646282e+01
  3.421801e+00    4.647567e+01
  3.426840e+00    4.648629e+01
  3.431879e+00    4.649914e+01
  3.436917e+00    4.657842e+01
  3.441956e+00    4.653757e+01
  3.446995e+00    4.659602e+01
  3.452034e+00    4.663322e+01
  3.457073e+00    4.677912e+01
  3.462112e+00    4.769918e+01
  3.467150e+00    4.906395e+01
  3.472189e+00    4.812905e+01
  3.477228e+00    4.701521e+01
  3.482267e+00    4.670480e+01
  3.487306e+00    4.666214e+01
  3.492345e+00    4.669237e+01
  3.497384e+00    4.668936e+01
  3.502422e+00    4.672373e+01
  3.507461e+00    4.674144e+01
  3.512500e+00    4.680915e+01
  3.517539e+00    4.678902e+01
  3.522578e+00    4.684551e+01
  3.527617e+00    4.686567e+01
  3.532655e+00    4.691594e+01
  3.537694e+00    4.692112e+01
  3.542733e+00    4.698775e+01
  3.547772e+00    4.700352e+01
  3.552811e+00    4.702139e+01
  3.557850e+00    4.706252e+01
  3.562889e+00    4.711951e+01
  3.567927e+00    4.711470e+01
  3.572966e+00    4.712225e+01
  3.578005e+00    4.716636e+01
  3.583044e+00    4.723252e+01
  3.588083e+00    4.729723e+01
  3.593122e+00    4.728177e+01
  3.598160e+00    4.733342e+01
  3.603199e+00    4.742253e+01
  3.608238e+00    4.741857e+01
  3.613277e+00    4.740160e+01
  3.618316e+00    4.747732e+01
  3.623355e+00    4.753645e+01
  3.628394e+00    4.753385e+01
  3.633432e+00    4.756323e+01
  3.638471e+00    4.764847e+01
  3.643510e+00    4.768089e+01
  3.648549e+00    4.767301e+01
  3.653588e+00    4.774481e+01
  3.658627e+00    4.779674e+01
  3.663665e+00    4.780946e+01
  3.668704e+00    4.784336e+01
  3.673743e+00    4.790599e+01
  3.678782e+00    4.788123e+01
  3.683821e+00    4.794820e+01
  3.688860e+00    4.801236e+01
  3.693899e+00    4.797118e+01
  3.698937e+00    4.805288e+01
  3.703976e+00    4.814447e+01
  3.709015e+00    4.807028e+01
  3.714054e+00    4.817456e+01
  3.719093e+00    4.825269e+01
  3.724132e+00    4.827306e+01
  3.729170e+00    4.834686e+01
  3.734209e+00    4.839287e+01
  3.739248e+00    4.843410e+01
  3.744287e+00    4.854528e+01
  3.749326e+00    4.873798e+01
  3.754365e+00    4.957883e+01
  3.759403e+00    5.299084e+01
  3.764442e+00    5.453198e+01
  3.769481e+00    5.184619e+01
  3.774520e+00    4.953794e+01
  3.779559e+00    4.901779e+01
  3.784598e+00    4.899154e+01
  3.789637e+00    4.895038e+01
  3.794675e+00    4.899984e+01
  3.799714e+00    4.906998e+01
  3.804753e+00    4.909070e+01
  3.809792e+00    4.917184e+01
  3.814831e+00    4.923366e+01
  3.819870e+00    4.930390e+01
  3.824908e+00    4.931558e+01
  3.829947e+00    4.957000e+01
  3.834986e+00    4.940476e+01
  3.840025e+00    4.951985e+01
  3.845064e+00    4.955481e+01
  3.850103e+00    4.960698e+01
  3.855142e+00    4.965116e+01
  3.860180e+00    4.971535e+01
  3.865219e+00    4.971881e+01
  3.870258e+00    4.985003e+01
  3.875297e+00    4.988882e+01
  3.880336e+00    4.995834e+01
  3.885375e+00    4.992958e+01
  3.890413e+00    5.002112e+01
  3.895452e+00    5.002922e+01
  3.900491e+00    5.012882e+01
  3.905530e+00    5.019633e+01
  3.910569e+00    5.019093e+01
  3.915608e+00    5.021712e+01
  3.920647e+00    5.022170e+01
  3.925685e+00    5.026995e+01
  3.930724e+00    5.030080e+01
  3.935763e+00    5.030462e+01
  3.940802e+00    5.038266e+01
  3.945841e+00    5.034629e+01
  3.950880e+00    5.042595e+01
  3.955918e+00    5.039735e+01
  3.960957e+00    5.042693e+01
  3.965996e+00    5.051326e+01
  3.971035e+00    5.052221e+01
  3.976074e+00    5.064743e+01
  3.981113e+00    5.093566e+01
  3.986152e+00    5.125607e+01
  3.991190e+00    5.095214e+01
  3.996229e+00    5.078460e+01
  4.001268e+00    5.063271e+01
  4.006307e+00    5.069659e+01
  4.011346e+00    5.069758e+01
  4.016385e+00    5.067371e+01
  4.021423e+00    5.069823e+01
  4.026462e+00    5.070082e+01
  4.031501e+00    5.071086e+01
  4.036540e+00    5.066966e+01
  4.041579e+00    5.071825e+01
  4.046618e+00    5.069436e+01
  4.051657e+00    5.073262e+01
  4.056695e+00    5.067109e+01
  4.061734e+00    5.069417e+01
  4.066773e+00    5.067735e+01
  4.071812e+00    5.066350e+01
  4.076851e+00    5.086271e+01
  4.081890e+00    5.122358e+01
  4.086928e+00    5.142133e+01
  4.091967e+00    5.162427e+01
  4.097006e+00    5.177507e+01
  4.102045e+00    5.194076e+01
  4.107084e+00    5.204047e+01
  4.112123e+00    5.207072e+01
  4.117161e+00    5.212704e+01
  4.122200e+00    5.222568e+01
  4.127239e+00    5.236152e+01
  4.132278e+00    5.248267e+01
  4.137317e+00    5.268808e+01
  4.142356e+00    5.262467e+01
  4.147395e+00    5.245723e+01
  4.152433e+00    5.247201e+01
  4.157472e+00    5.240600e+01
  4.162511e+00    5.243188e+01
  4.167550e+00    5.246665e+01
  4.172589e+00    5.247428e+01
  4.177628e+00    5.251601e+01
  4.182666e+00    5.247926e+01
  4.187705e+00    5.250198e+01
  4.192744e+00    5.254668e+01
  4.197783e+00    5.257537e+01
  4.202822e+00    5.258295e+01
  4.207861e+00    5.265298e+01
  4.212900e+00    5.272110e+01
  4.217938e+00    5.273235e+01
  4.222977e+00    5.281538e+01
  4.228016e+00    5.285452e+01
  4.233055e+00    5.293222e+01
  4.238094e+00    5.300145e+01
  4.243133e+00    5.306312e+01
  4.248171e+00    5.308371e+01
  4.253210e+00    5.315680e+01
  4.258249e+00    5.326900e+01
  4.263288e+00    5.333347e+01
  4.268327e+00    5.343803e+01
  4.273366e+00    5.349569e+01
  4.278405e+00    5.364631e+01
  4.283443e+00    5.380497e+01
  4.288482e+00    5.442700e+01
  4.293521e+00    5.571503e+01
  4.298560e+00    5.597097e+01
  4.303599e+00    5.488827e+01
  4.308638e+00    5.443474e+01
  4.313676e+00    5.438953e+01
  4.318715e+00    5.448691e+01
  4.323754e+00    5.454435e+01
  4.328793e+00    5.470424e+01
  4.333832e+00    5.485382e+01
  4.338871e+00    5.501572e+01
  4.343910e+00    5.516452e+01
  4.348948e+00    5.527405e+01
  4.353987e+00    5.547921e+01
  4.359026e+00    5.566034e+01
  4.364065e+00    5.587020e+01
  4.369104e+00    5.613120e+01
  4.374143e+00    5.635705e+01
  4.379181e+00    5.663453e+01
  4.384220e+00    5.693054e+01
  4.389259e+00    5.809567e+01
  4.394298e+00    5.995074e+01
  4.399337e+00    6.003358e+01
  4.404376e+00    5.892535e+01
  4.409415e+00    5.838617e+01
  4.414453e+00    5.854966e+01
  4.419492e+00    5.880173e+01
  4.424531e+00    5.928035e+01
  4.429570e+00    5.955695e+01
  4.434609e+00    5.996320e+01
  4.439648e+00    6.035016e+01
  4.444686e+00    6.098650e+01
  4.449725e+00    6.127284e+01
  4.454764e+00    6.188836e+01
  4.459803e+00    6.230189e+01
  4.464842e+00    6.298057e+01
  4.469881e+00    6.347306e+01
  4.474920e+00    6.413873e+01
  4.479958e+00    6.481332e+01
  4.484997e+00    6.535222e+01
  4.490036e+00    6.619057e+01
  4.495075e+00    6.676429e+01
  4.500114e+00    6.767645e+01
  4.505153e+00    6.841167e+01
  4.510191e+00    6.920991e+01
  4.515230e+00    7.011954e+01
  4.520269e+00    7.079929e+01
  4.525308e+00    7.142960e+01
  4.530347e+00    7.225562e+01
  4.535386e+00    7.297630e+01
  4.540424e+00    7.389483e+01
  4.545463e+00    7.466298e+01
  4.550502e+00    7.558511e+01
  4.555541e+00    7.651369e+01
  4.560580e+00    7.742680e+01
  4.565619e+00    7.857492e+01
  4.570658e+00    7.963760e+01
  4.575696e+00    8.073538e+01
  4.580735e+00    8.185784e+01
  4.585774e+00    8.333489e+01
  4.590813e+00    8.422048e+01
  4.595852e+00    8.544441e+01
  4.600891e+00    8.671068e+01
  4.605929e+00    8.781943e+01
  4.610968e+00    8.911585e+01
  4.616007e+00    9.018045e+01
  4.621046e+00    9.157809e+01
  4.626085e+00    9.272018e+01
  4.631124e+00    9.409111e+01
  4.636163e+00    9.518204e+01
  4.641201e+00    9.658771e+01
  4.646240e+00    9.760661e+01
  4.651279e+00    9.899990e+01
  4.656318e+00    1.000195e+02
  4.661357e+00    1.011176e+02
  4.666396e+00    1.019900e+02
  4.671434e+00    1.026168e+02
  4.676473e+00    1.033369e+02
  4.681512e+00    1.041467e+02
  4.686551e+00    1.047121e+02
  4.691590e+00    1.043920e+02
  4.696629e+00    1.043269e+02
  4.701668e+00    1.041679e+02
  4.706706e+00    1.040105e+02
  4.711745e+00    1.039578e+02
  4.716784e+00    1.034607e+02
  4.721823e+00    1.033188e+02
  4.726862e+00    1.028776e+02
  4.731901e+00    1.025560e+02
  4.736939e+00    1.021383e+02
  4.741978e+00    1.017478e+02
  4.747017e+00    1.013289e+02
  4.752056e+00    1.009227e+02
  4.757095e+00    1.004121e+02
  4.762134e+00    9.994540e+01
  4.767173e+00    9.945460e+01
  4.772211e+00    9.888862e+01
  4.777250e+00    9.838342e+01
  4.782289e+00    9.774070e+01
  4.787328e+00    9.714252e+01
  4.792367e+00    9.651727e+01
  4.797406e+00    9.589342e+01
  4.802444e+00    9.528916e+01
  4.807483e+00    9.461449e+01
  4.812522e+00    9.394739e+01
  4.817561e+00    9.323162e+01
  4.822600e+00    9.247102e+01
  4.827639e+00    9.175589e+01
  4.832678e+00    9.102298e+01
  4.837716e+00    9.023790e+01
  4.842755e+00    8.952510e+01
  4.847794e+00    8.887502e+01
  4.852833e+00    8.834142e+01
  4.857872e+00    8.762810e+01
  4.862911e+00    8.657681e+01
  4.867949e+00    8.564072e+01
  4.872988e+00    8.487238e+01
  4.878027e+00    8.404008e+01
  4.883066e+00    8.322413e+01
  4.888105e+00    8.239384e+01
  4.893144e+00    8.155671e+01
  4.898182e+00    8.072128e+01
  4.903221e+00    7.990106e+01
  4.908260e+00    7.909689e+01
  4.913299e+00    7.829740e+01
  4.918338e+00    7.756188e+01
  4.923377e+00    7.676557e+01
  4.928416e+00    7.604096e+01
  4.933454e+00    7.525522e+01
  4.938493e+00    7.446958e+01
  4.943532e+00    7.371225e+01
  4.948571e+00    7.297285e+01
  4.953610e+00    7.222422e+01
  4.958649e+00    7.147347e+01
  4.963687e+00    7.078838e+01
  4.968726e+00    7.006531e+01
  4.973765e+00    6.939470e+01
  4.978804e+00    6.871645e+01
  4.983843e+00    6.804498e+01
  4.988882e+00    6.740401e+01
  4.993921e+00    6.678591e+01
  4.998959e+00    6.615531e+01
  5.003998e+00    6.551231e+01
  5.009037e+00    6.492424e+01
  5.014076e+00    6.435662e+01
  5.019115e+00    6.380003e+01
  5.024154e+00    6.325490e+01
  5.029192e+00    6.274998e+01
  5.034231e+00    6.224385e+01
  5.039270e+00    6.176003e+01
  5.044309e+00    6.120294e+01
  5.049348e+00    6.072902e+01
  5.054387e+00    6.031215e+01
  5.059426e+00    5.981998e+01
  5.064464e+00    5.937836e+01
  5.069503e+00    5.897961e+01
  5.074542e+00    5.859502e+01
  5.079581e+00    5.820002e+01
  5.084620e+00    5.767441e+01
  5.089659e+00    5.722152e+01
  5.094697e+00    5.681929e+01
  5.099736e+00    5.643200e+01
  5.104775e+00    5.605400e+01
  5.109814e+00    5.573427e+01
  5.114853e+00    5.526170e+01
  5.119892e+00    5.484766e+01
  5.124931e+00    5.437674e+01
  5.129969e+00    5.394590e+01
  5.135008e+00    5.339166e+01
  5.140047e+00    5.305491e+01
  5.145086e+00    5.253416e+01
  5.150125e+00    5.213410e+01
